subject,label,S1_D1_w1,S1_D1_w2,S1_D1_w3,S1_D2_w1,S1_D2_w2,S1_D2_w3,S2_D1_w1,S2_D1_w2,S2_D1_w3,S2_D3_w1,S2_D3_w2,S2_D3_w3,S3_D1_w1,S3_D1_w2,S3_D1_w3,S3_D2_w1,S3_D2_w2,S3_D2_w3,S3_D3_w1,S3_D3_w2,S3_D3_w3,S3_D4_w1,S3_D4_w2,S3_D4_w3,S4_D2_w1,S4_D2_w2,S4_D2_w3,S4_D4_w1,S4_D4_w2,S4_D4_w3,S5_D3_w1,S5_D3_w2,S5_D3_w3,S5_D4_w1,S5_D4_w2,S5_D4_w3,S6_D5_w1,S6_D5_w2,S6_D5_w3,S6_D6_w1,S6_D6_w2,S6_D6_w3,S7_D5_w1,S7_D5_w2,S7_D5_w3,S7_D7_w1,S7_D7_w2,S7_D7_w3,S8_D5_w1,S8_D5_w2,S8_D5_w3,S8_D6_w1,S8_D6_w2,S8_D6_w3,S8_D7_w1,S8_D7_w2,S8_D7_w3,S8_D8_w1,S8_D8_w2,S8_D8_w3,S9_D6_w1,S9_D6_w2,S9_D6_w3,S9_D8_w1,S9_D8_w2,S9_D8_w3,S10_D7_w1,S10_D7_w2,S10_D7_w3,S10_D8_w1,S10_D8_w2,S10_D8_w3
sub-101,3,-7.12077899233193e-08,-1.5914817460182073e-08,4.0371248733828944e-08,1.0595062986177708e-07,-1.5914817460182073e-08,5.57686350451088e-09,-5.745609679464915e-08,1.1589692827078592e-09,3.8631506733859875e-08,3.9381047795183326e-08,7.768854924742332e-09,1.4250819091089609e-08,-5.5243221950695944e-08,-4.4751556016216036e-08,-1.2898227150169985e-08,1.0889158597812801e-07,-4.4751556016216036e-08,7.897477356107937e-09,1.0889158597812801e-07,-1.570836278533297e-08,7.897477356107937e-09,-1.570836278533297e-08,7.897477356107937e-09,-1.570836278533297e-08,-7.274152918263138e-08,3.015758821283134e-08,4.543606234847673e-08,8.5426323571751e-08,3.015758821283134e-08,3.758460272061032e-08,-4.817682791933374e-08,2.2718347817540524e-08,7.122959475588476e-08,9.663326287890722e-08,2.9523036739343386e-08,4.00273532431622e-08,3.3775139070435214e-08,-5.924680937403867e-09,-3.158122942377624e-08,8.319233457595386e-08,-5.924680937403867e-09,7.081202348833971e-08,8.319233457595386e-08,3.612793471542647e-08,7.081202348833971e-08,3.612793471542647e-08,7.081202348833971e-08,3.612793471542647e-08,-7.629617213413836e-08,-1.7423848217670625e-08,2.0018041236001667e-09,3.4356579469007314e-08,-1.7423848217670625e-08,-1.9063581154045816e-08,-1.1437203019361078e-07,-5.064373269622859e-08,1.2138343732505695e-09,6.806838855737003e-09,-5.1333041509959095e-08,-5.5582043927957375e-08,-1.890945520092747e-08,-6.375286111734262e-08,-6.33807523588854e-08,4.680182947735662e-08,-6.375286111734262e-08,1.4272962849245382e-08,4.680182947735662e-08,-7.726111352253103e-09,1.4272962849245382e-08,-7.726111352253103e-09,1.4272962849245382e-08,-7.726111352253103e-09
sub-101,1,-7.105097867836123e-08,-1.4288472106168533e-07,-1.6614898454721114e-07,-1.0679705478077277e-07,-1.4288472106168533e-07,-1.5494728832518892e-07,-1.1007382272111916e-07,-9.783376242195208e-08,-1.7733740204389902e-07,-9.094487742145816e-08,-8.595870999114496e-08,-8.048996346725425e-08,-9.53087465345039e-08,-7.738328731933744e-08,-7.265711201722404e-08,-1.4842815725605462e-07,-7.738328731933744e-08,-1.555043651496685e-07,-1.4842815725605462e-07,-5.8733735082608126e-08,-1.555043651496685e-07,-5.8733735082608126e-08,-1.555043651496685e-07,-5.8733735082608126e-08,-2.1694032159071375e-07,-3.4624183401792215e-07,-2.9608355933239164e-07,-2.2402673986852996e-07,-3.4624183401792215e-07,-3.1939539149394866e-07,-2.701730025054866e-07,-1.0317249896426768e-07,-3.3448115542527515e-07,-2.6457730376515473e-07,-2.2318829000165004e-07,-2.1736221015286838e-07,-3.636128204001611e-07,-2.5890250592706994e-07,-1.8455435311238614e-07,-2.158853047511275e-07,-2.5890250592706994e-07,-3.1885793486112176e-07,-2.158853047511275e-07,-2.1083023925698449e-07,-3.1885793486112176e-07,-2.1083023925698449e-07,-3.1885793486112176e-07,-2.1083023925698449e-07,-1.2435266695562356e-07,-1.5821776505265225e-07,-2.149239603973377e-07,-1.5704664452031775e-07,-1.5821776505265225e-07,-1.747448814739754e-07,-1.4619468118658987e-07,-3.970966701870165e-08,-1.4043470498706085e-07,-1.4149596858067237e-07,-1.1222400835019095e-07,-1.14798918254076e-07,-1.3825589739827083e-07,-1.2930894278056732e-07,-9.825673696708236e-08,-1.1564524809907142e-07,-1.2930894278056732e-07,-1.468957811310497e-07,-1.1564524809907142e-07,-1.1018121295747392e-07,-1.468957811310497e-07,-1.1018121295747392e-07,-1.468957811310497e-07,-1.1018121295747392e-07
sub-101,4,6.854295130701052e-08,1.563502462123568e-07,1.2075822396493429e-07,1.0661976059437333e-07,1.563502462123568e-07,1.3856062312978332e-07,1.2129798390506222e-07,4.591665859077987e-08,1.2525544850127963e-07,1.3506461918328744e-07,6.578145665149622e-08,1.1991896131425123e-07,1.0450043728000808e-07,1.789360447964491e-07,1.2371392464288361e-07,7.21552347684082e-08,1.789360447964491e-07,1.392406171146458e-07,7.21552347684082e-08,1.0804338267941078e-07,1.392406171146458e-07,1.0804338267941078e-07,1.392406171146458e-07,1.0804338267941078e-07,-4.23345496823617e-08,-1.082686846024395e-07,4.155228827890111e-08,5.8110494481737694e-08,-1.082686846024395e-07,-9.283569379316895e-08,-2.1933080800564992e-08,2.9991659850268926e-08,-1.2232448559401326e-07,-1.0957327055165577e-07,-5.5503206583146626e-08,-9.656181821994608e-08,-1.5169821384014878e-07,9.599299002218466e-08,2.9496353128455738e-08,-1.2847014525170336e-08,9.599299002218466e-08,-1.030344876812562e-07,-1.2847014525170336e-08,-4.752629908651004e-08,-1.030344876812562e-07,-4.752629908651004e-08,-1.030344876812562e-07,-4.752629908651004e-08,-5.168071250647916e-08,-4.2685744757563676e-08,4.663471816635005e-08,3.576296289188531e-08,-4.2685744757563676e-08,-3.099187532821084e-08,-7.399157690491879e-09,3.677781808507386e-08,-7.4290868453929384e-09,-5.7666686463472846e-08,-2.848574579866612e-08,-5.366930794550893e-08,-1.397103691623953e-07,7.855581691436211e-08,4.139977551725344e-08,2.7382678780533507e-08,7.855581691436211e-08,1.718898158336499e-08,2.7382678780533507e-08,4.968935342691545e-09,1.718898158336499e-08,4.968935342691545e-09,1.718898158336499e-08,4.968935342691545e-09
sub-101,2,1.206235302590525e-07,1.4314278270367204e-07,2.2468283236494018e-08,2.4332192649839304e-08,1.4314278270367204e-07,1.236010665448962e-07,1.0357019798601951e-07,1.868318942008433e-09,1.9447802171687164e-07,1.495827467588534e-07,7.898354809823446e-08,9.961011798932113e-08,1.677314044526918e-07,5.732859805296887e-08,5.623947926319106e-08,5.5721164561182925e-08,5.732859805296887e-08,1.7086942572600282e-07,5.5721164561182925e-08,1.270244508211144e-07,1.7086942572600282e-07,1.270244508211144e-07,1.7086942572600282e-07,1.270244508211144e-07,-4.8153153461931675e-08,-1.2609332176923e-07,-1.9243629549477524e-07,-1.9388289874363846e-07,-1.2609332176923e-07,-7.518197531543729e-08,-1.575664298496746e-07,-4.3667723290246115e-08,-1.9619374702329844e-08,-2.1784251754819096e-08,-1.6158184596951668e-07,-5.80101214345447e-08,-2.271607139812607e-07,-2.3315729952423618e-07,-1.2826143518828923e-07,-9.531008779506006e-08,-2.3315729952423618e-07,-6.231877897448784e-08,-9.531008779506006e-08,-6.253475167040825e-08,-6.231877897448784e-08,-6.253475167040825e-08,-6.231877897448784e-08,-6.253475167040825e-08,-5.819886534968675e-08,-4.4556918735073066e-08,-1.9672304188280696e-07,-1.899269426931619e-07,-4.4556918735073066e-08,-2.395698956445612e-09,-1.412016603787385e-07,-9.280886442724612e-09,8.213444224467369e-08,6.896841866675426e-08,-9.689345054240092e-08,2.6093472271957337e-08,-1.9804499604527223e-07,-1.8087349547829386e-07,-1.1159649639216285e-07,-2.7599471269169653e-08,-1.8087349547829386e-07,5.2352136484117474e-08,-2.7599471269169653e-08,1.1517758885568713e-08,5.2352136484117474e-08,1.1517758885568713e-08,5.2352136484117474e-08,1.1517758885568713e-08
sub-101,3,-1.31968752098459e-07,-1.3767379168323202e-07,-2.0016701035914126e-07,-1.7070696023266117e-07,-1.3767379168323202e-07,-6.784067893385324e-08,-1.3782757241333664e-07,-6.926142970831297e-08,-5.5924290788834546e-09,-2.5784489004444082e-08,-8.027004723397463e-08,-4.6783507196785175e-09,-2.506386691937266e-07,-2.170975388317696e-07,-1.2287386041666502e-07,-3.3502156629754975e-08,-2.170975388317696e-07,-4.347708874537231e-08,-3.3502156629754975e-08,-9.51591142794848e-08,-4.347708874537231e-08,-9.51591142794848e-08,-4.347708874537231e-08,-9.51591142794848e-08,-1.2106738025414407e-07,-9.352092638998228e-08,-1.9140008232117974e-07,-1.9641598394586176e-07,-9.352092638998228e-08,-3.342972124889239e-08,-9.451036295392698e-08,-4.288628990467108e-08,1.1685953474099918e-08,-2.2305491796735143e-08,-3.975412276849283e-08,1.6002261084059858e-08,-2.3650519723511367e-07,-2.186239302856886e-07,-1.3394548120761947e-07,-5.841678954585633e-08,-2.186239302856886e-07,-2.755345071632519e-08,-5.841678954585633e-08,-7.201079618079431e-08,-2.755345071632519e-08,-7.201079618079431e-08,-2.755345071632519e-08,-7.201079618079431e-08,-1.4034320808600546e-07,-1.424797271949848e-07,-1.9961507880565364e-07,-2.4554706406581474e-07,-1.424797271949848e-07,-9.482537242374776e-08,-1.2594074564172963e-07,-2.2446866570950952e-08,-9.222111905661616e-08,-1.0917878721161016e-07,-9.525375192011255e-08,-4.988832607432573e-08,-3.3821285809886426e-07,-2.869831792824979e-07,-1.588278994738611e-07,-1.1092025771901176e-07,-2.869831792824979e-07,-1.3732825107176628e-07,-1.1092025771901176e-07,-1.3563083241523107e-07,-1.3732825107176628e-07,-1.3563083241523107e-07,-1.3732825107176628e-07,-1.3563083241523107e-07
sub-101,1,-2.55178387806467e-08,8.873202613466255e-08,1.0624299571018709e-08,9.927704845894683e-08,8.873202613466255e-08,-8.049887985397692e-08,1.1398684226502915e-08,-2.2046832805412407e-08,-1.462173899664236e-07,-8.195483925408427e-08,-8.484899424417825e-08,-1.1375670390395376e-07,2.1695108027967018e-07,2.2624558451492623e-07,4.5046862306307094e-08,8.610449219296488e-08,2.2624558451492623e-07,6.317177741990674e-08,8.610449219296488e-08,3.7454566924469355e-08,6.317177741990674e-08,3.7454566924469355e-08,6.317177741990674e-08,3.7454566924469355e-08,-1.0890201990241696e-07,-3.497030774684813e-08,6.584205260702422e-10,1.4197867645606392e-07,-3.497030774684813e-08,-2.1482080465244324e-07,-1.2799154770659194e-07,-7.988849666674368e-08,-2.661137739525422e-07,-1.609334970889447e-07,-1.84567746103086e-07,-2.0873637844003795e-07,1.0118193681686626e-07,2.401203737222054e-07,8.32315809198638e-08,1.7255254011201957e-07,2.401203737222054e-07,-7.884444774059853e-08,1.7255254011201957e-07,-3.322002806282991e-08,-7.884444774059853e-08,-3.322002806282991e-08,-7.884444774059853e-08,-3.322002806282991e-08,-3.9427470627329426e-08,7.385603896706857e-08,2.8864592283590475e-08,1.3954589636319533e-07,7.385603896706857e-08,-7.881171853560343e-08,-5.8049609141154664e-08,1.897258997732704e-08,-1.0556121614902507e-07,-2.0068600257386867e-08,-8.360916219398638e-08,-8.271144197797869e-08,1.2037374382523435e-07,2.1801503704388966e-07,1.2515736506661174e-07,1.9025743865252288e-07,2.1801503704388966e-07,3.845049836181537e-08,1.9025743865252288e-07,3.66048155800791e-08,3.845049836181537e-08,3.66048155800791e-08,3.845049836181537e-08,3.66048155800791e-08
sub-101,4,4.954202082230846e-08,9.308603914090899e-08,3.790624357382298e-08,5.521460918993769e-08,9.308603914090899e-08,5.4183326202424444e-08,1.013716308692975e-07,1.0495253246848168e-07,6.68351725693134e-08,5.976328806189695e-08,9.83476996334067e-08,7.738288920111652e-08,2.6901593412946817e-07,1.4767208479506148e-07,1.1726885839168548e-07,9.783811922631249e-08,1.4767208479506148e-07,1.1405323394473382e-07,9.783811922631249e-08,9.51730209818183e-08,1.1405323394473382e-07,9.51730209818183e-08,1.1405323394473382e-07,9.51730209818183e-08,-5.952188625376587e-08,-1.648770628371614e-07,-3.540253058661457e-08,1.4725439342735493e-08,-1.648770628371614e-07,-1.6105410565286575e-07,-5.5509832224186114e-08,-6.403537515603681e-08,-1.7041788236304156e-07,-1.61218820910836e-07,-6.150693152449831e-08,-1.0046750970626452e-07,-2.1830191365249222e-08,1.3958160779678576e-08,3.475971272068217e-08,8.086852097049316e-08,1.3958160779678576e-08,-1.7431831100387748e-07,8.086852097049316e-08,-8.131572818883699e-08,-1.7431831100387748e-07,-8.131572818883699e-08,-1.7431831100387748e-07,-8.131572818883699e-08,-9.771460987304648e-08,-1.6125026669882378e-07,-5.413674545140831e-08,3.5179766958747147e-09,-1.6125026669882378e-07,-1.3034978888167103e-07,-8.65621725923458e-08,-3.991297995975873e-08,-1.0801315461084459e-07,-1.13366401618961e-07,1.0315682133464246e-08,-5.6585976623324796e-08,-1.1312901956813431e-07,-6.572104425964139e-09,-3.533798310762292e-08,3.290690377432667e-08,-6.572104425964139e-09,-1.1855977315747671e-07,3.290690377432667e-08,-6.212835974347476e-08,-1.1855977315747671e-07,-6.212835974347476e-08,-1.1855977315747671e-07,-6.212835974347476e-08
sub-101,2,-2.1322451261176186e-08,-5.022595494866774e-09,-1.0606016864667467e-07,-1.1478738719771842e-07,-5.022595494866774e-09,1.829359414257888e-09,1.1337751543726538e-08,-1.4051819827036775e-08,-2.0376560587020285e-08,-2.9249833555379506e-08,-1.1308703071825567e-07,-5.325961105359285e-08,-7.345155667757586e-08,-1.4287301007714786e-07,-3.010485495958109e-09,-5.1192773253577786e-08,-1.4287301007714786e-07,1.6695034739788378e-08,-5.1192773253577786e-08,-1.7570451777426955e-08,1.6695034739788378e-08,-1.7570451777426955e-08,1.6695034739788378e-08,-1.7570451777426955e-08,-9.773822822415286e-08,-1.262742334170989e-07,-1.6403625202785713e-07,-1.503311058833539e-07,-1.262742334170989e-07,-9.654183495215318e-08,-7.329141778742533e-08,-9.629763045060923e-08,-9.649934872089377e-08,-1.210131090376139e-07,-2.327839866675518e-07,-1.6502195168802426e-07,-1.1402457669181817e-07,-1.8372892667141487e-07,-7.12146745885534e-08,-1.5340286629180876e-07,-1.8372892667141487e-07,-1.2463805101757157e-07,-1.5340286629180876e-07,-9.573446996041873e-08,-1.2463805101757157e-07,-9.573446996041873e-08,-1.2463805101757157e-07,-9.573446996041873e-08,-1.0806492937000506e-07,-2.128002701672681e-07,-1.7632757368990333e-07,-1.2541739864855585e-07,-2.128002701672681e-07,-1.733881404661438e-07,-1.1109700316060113e-07,-1.446486905346433e-07,-1.8662874738209546e-07,-1.9051387201726758e-07,-1.9735600233209893e-07,-1.9658632603679088e-07,-1.7217421406490003e-07,-1.7727792402296444e-07,-9.79923352108639e-08,-1.5442533487177793e-07,-1.7727792402296444e-07,-1.9018175820889942e-07,-1.5442533487177793e-07,-1.1613157123135014e-07,-1.9018175820889942e-07,-1.1613157123135014e-07,-1.9018175820889942e-07,-1.1613157123135014e-07
sub-101,3,1.3529778006201803e-07,1.7727021023420148e-07,1.384316833653214e-07,3.762174349991084e-08,1.7727021023420148e-07,1.5898065856861059e-07,1.9074802506905912e-07,7.56452805084728e-08,8.354483062702428e-08,3.037270959649796e-08,8.99710367910654e-08,6.930977556862384e-08,6.5820742409739e-08,3.2105146314617744e-08,1.6516708622686865e-07,1.2080919643395113e-07,3.2105146314617744e-08,1.74437254784535e-07,1.2080919643395113e-07,5.6016726677860413e-08,1.74437254784535e-07,5.6016726677860413e-08,1.74437254784535e-07,5.6016726677860413e-08,1.047555811370854e-07,1.512733800518088e-07,1.5309796216396232e-07,5.92503240712259e-08,1.512733800518088e-07,1.0777697367891166e-07,1.3875000057797168e-07,1.6437695804941323e-09,4.991097409581152e-08,-7.953643402560283e-09,-8.249685874774135e-09,-2.808798638100418e-08,1.877372555909055e-08,-1.3222356120635824e-08,1.816820422217817e-07,1.1460771044370557e-07,-1.3222356120635824e-08,1.1555253571918661e-07,1.1460771044370557e-07,-5.904897733306865e-09,1.1555253571918661e-07,-5.904897733306865e-09,1.1555253571918661e-07,-5.904897733306865e-09,-4.2868948486762606e-08,2.181246622831142e-09,8.410122596430714e-08,2.8337337381833025e-08,2.181246622831142e-09,-8.54523643777213e-08,-4.150238454495112e-09,-1.248493643325918e-07,-1.5532920775974582e-07,-1.9146762800682643e-07,-1.4072613976740903e-07,-2.0628375911737806e-07,-5.349781824191589e-08,-9.327089458504032e-08,8.039407436985409e-08,3.835693698219416e-08,-9.327089458504032e-08,-9.233839130385804e-08,3.835693698219416e-08,-1.2868339297145714e-07,-9.233839130385804e-08,-1.2868339297145714e-07,-9.233839130385804e-08,-1.2868339297145714e-07
sub-101,1,7.218094030013998e-08,-3.2593806887676544e-07,-5.447383371304002e-08,6.83428658375689e-08,-3.2593806887676544e-07,-2.106704170570587e-07,-4.882186595710877e-08,-7.886890931113467e-09,-2.8021345270887676e-07,-7.80104332916073e-08,6.162450590703323e-08,1.997353952786345e-08,6.03488108972389e-08,5.356594037321629e-08,-1.5588079832331052e-08,6.781926004026789e-08,5.356594037321629e-08,-2.433580005566894e-07,6.781926004026789e-08,-1.3443900803642107e-08,-2.433580005566894e-07,-1.3443900803642107e-08,-2.433580005566894e-07,-1.3443900803642107e-08,-3.7169334344410956e-08,-4.943643476464874e-07,-1.483130533382211e-07,-6.234706317791494e-08,-4.943643476464874e-07,-3.62451373845118e-07,-2.2368148413444817e-07,-7.884837025104953e-08,-4.1318656537128407e-07,-2.147129042843152e-07,-3.0748159435382326e-08,-7.24166612495693e-08,-1.3723044518873537e-07,-1.208413951186528e-07,-1.3890975671184234e-07,1.0568628074382109e-07,-1.208413951186528e-07,-4.305990806477569e-07,1.0568628074382109e-07,-1.7610006957007253e-07,-4.305990806477569e-07,-1.7610006957007253e-07,-4.305990806477569e-07,-1.7610006957007253e-07,-2.8720345968011965e-09,-2.8780105354859574e-07,-1.0831164095005346e-07,-1.3856501199171977e-08,-2.8780105354859574e-07,-1.5990378220273363e-07,-1.286526936728716e-07,2.9351734099510418e-08,-1.65222639890037e-07,-1.681593890521989e-08,9.06022388536535e-08,8.739936022902794e-08,-1.566037249615422e-08,-3.8717818663711636e-08,-9.832458061767587e-08,1.1821565224698789e-07,-3.8717818663711636e-08,-1.9629507922366484e-07,1.1821565224698789e-07,-6.203844374773469e-08,-1.9629507922366484e-07,-6.203844374773469e-08,-1.9629507922366484e-07,-6.203844374773469e-08
sub-101,4,9.926063339183535e-08,1.218194710450673e-07,3.8009030214094475e-08,-2.0895724172601547e-08,1.218194710450673e-07,1.1248398722058756e-07,1.2718774928250892e-07,6.738630565493973e-08,1.3604033536140007e-07,1.2868030676938076e-07,2.0096273541892456e-08,5.294078035116202e-08,2.3384361928314062e-07,1.1361003233371508e-07,6.350303976817798e-08,-5.4001069719089766e-08,1.1361003233371508e-07,8.467130323557683e-08,-5.4001069719089766e-08,1.2415620536410648e-07,8.467130323557683e-08,1.2415620536410648e-07,8.467130323557683e-08,1.2415620536410648e-07,1.5622970376861016e-07,5.653803519263277e-08,1.0407395398590594e-07,4.118460676542685e-08,5.653803519263277e-08,4.31506249459337e-08,1.5951526607009936e-07,4.263797212825986e-08,3.570296545644768e-08,9.52923300391447e-08,-2.7033720490436496e-08,1.534072808645087e-08,2.1312163059449661e-07,1.194698756020577e-07,7.934028280163295e-08,-1.2070323081639305e-07,1.194698756020577e-07,3.564363264507217e-08,-1.2070323081639305e-07,1.0686831635186668e-07,3.564363264507217e-08,1.0686831635186668e-07,3.564363264507217e-08,1.0686831635186668e-07,1.2454823626212675e-07,6.220440046066876e-08,9.268292300905806e-08,1.693325321827915e-08,6.220440046066876e-08,5.91594186505978e-08,1.177181287528651e-07,5.837372957850864e-08,8.362417966124313e-08,1.1516465993517743e-07,-4.474527995444246e-08,3.9683337743482346e-08,1.4234023664919207e-07,6.327682470804973e-08,3.138949354084135e-08,-1.2432276461036563e-07,6.327682470804973e-08,6.881705105820206e-08,-1.2432276461036563e-07,1.1506672905181086e-07,6.881705105820206e-08,1.1506672905181086e-07,6.881705105820206e-08,1.1506672905181086e-07
sub-101,2,-6.37257803141179e-08,-6.039975363573572e-08,-8.620840332689212e-08,-6.589209204529875e-08,-6.039975363573572e-08,-6.492922413238765e-08,-9.240090989744517e-08,-9.232308362261219e-08,-5.392581754373847e-08,-1.3720967193684972e-07,-7.883830776722006e-08,-9.842401651201133e-08,-1.4542199955840024e-07,-1.4924693548209456e-07,-6.297119605324561e-08,-3.1835138392960263e-09,-1.4924693548209456e-07,-3.2795170173180146e-08,-3.1835138392960263e-09,-8.001200136903872e-08,-3.2795170173180146e-08,-8.001200136903872e-08,-3.2795170173180146e-08,-8.001200136903872e-08,-5.1675812171286287e-08,2.5611811685955075e-08,-7.180746797430985e-08,-3.8780994539368174e-08,2.5611811685955075e-08,-1.877812051111925e-08,-3.281629681875581e-08,-8.143371958720808e-08,-6.705412992880457e-08,-1.5193808321402215e-07,-2.7925020965544215e-08,-8.94823932743187e-08,-1.1395424916483839e-07,-9.114804157243373e-08,-5.463449818729986e-08,3.932316999173494e-09,-9.114804157243373e-08,-1.3291170261611639e-08,3.932316999173494e-09,-5.6022658801397394e-08,-1.3291170261611639e-08,-5.6022658801397394e-08,-1.3291170261611639e-08,-5.6022658801397394e-08,-1.2861838181940834e-07,-5.4998690698640546e-08,-1.1981676574277903e-07,-8.228899358004545e-08,-5.4998690698640546e-08,-1.1799106285834994e-07,-1.1159212928511934e-07,-1.7090941090652496e-07,-1.6049008054400284e-07,-2.430249422210092e-07,-9.675396572458679e-08,-1.773717276959827e-07,-2.3512450746904414e-07,-1.8198907728737874e-07,-5.995586567702266e-08,6.147053493664834e-09,-1.8198907728737874e-07,-8.539408553495808e-08,6.147053493664834e-09,-1.2247148226296467e-07,-8.539408553495808e-08,-1.2247148226296467e-07,-8.539408553495808e-08,-1.2247148226296467e-07
sub-101,3,-5.458027096050876e-08,-9.12893862778824e-08,-2.74980100069058e-09,3.379750524390403e-08,-9.12893862778824e-08,-8.961762653266135e-08,-5.7693356530865313e-08,-8.290343428276232e-08,-1.0316769318407836e-07,-1.0054807639222208e-07,-5.6930464830730226e-08,-8.339686218311093e-08,-1.1882884972901127e-07,-8.47602034724262e-08,2.1533968889100176e-08,8.845235206515979e-08,-8.47602034724262e-08,-1.4079278565015054e-07,8.845235206515979e-08,-9.970011535933593e-08,-1.4079278565015054e-07,-9.970011535933593e-08,-1.4079278565015054e-07,-9.970011535933593e-08,-2.244614251703957e-08,2.004430148192411e-09,-1.1818033161881699e-08,5.3984362721373616e-08,2.004430148192411e-09,2.24833692168066e-08,3.4541779189359415e-08,5.094803924025623e-08,2.467636856000927e-08,4.247374686018214e-08,7.218035078504563e-08,5.8151694179877874e-08,1.0638101839337333e-08,2.8898630441285177e-09,4.313583870121997e-08,1.289545333621834e-07,2.8898630441285177e-09,9.48486955373186e-09,1.289545333621834e-07,-4.41691304148516e-09,9.48486955373186e-09,-4.41691304148516e-09,9.48486955373186e-09,-4.41691304148516e-09,2.053398878407648e-09,-2.369571083258736e-08,-2.0345098886624494e-08,1.4879401169125652e-08,-2.369571083258736e-08,2.5203432683786328e-08,5.348052476782905e-08,5.835393717087737e-08,1.87387117068873e-09,5.940906608867225e-08,6.859380097351956e-08,6.90922946378951e-08,5.046050973268092e-08,1.2301792847956059e-08,2.98221391142989e-08,8.720273357053806e-08,1.2301792847956059e-08,1.5855012237362613e-08,8.720273357053806e-08,9.764443976207005e-09,1.5855012237362613e-08,9.764443976207005e-09,1.5855012237362613e-08,9.764443976207005e-09
sub-101,1,1.5143264671988522e-07,2.26076440601203e-07,1.7197266696220643e-07,1.8992474142633692e-07,2.26076440601203e-07,2.0637543004525082e-07,1.530076360641413e-07,1.1577760045242223e-07,2.2037189788433787e-07,1.7720848304065455e-07,1.5589745922389808e-07,1.322893602104549e-07,3.113448445205743e-07,2.1604600294892033e-07,3.4766449412585304e-08,-4.474111753135805e-08,2.1604600294892033e-07,1.674989292289503e-07,-4.474111753135805e-08,8.144065391777405e-08,1.674989292289503e-07,8.144065391777405e-08,1.674989292289503e-07,8.144065391777405e-08,1.7106123680723522e-07,2.3352057590726735e-07,1.4651905296957621e-07,1.7812823251285152e-07,2.3352057590726735e-07,2.2016702368419784e-07,1.365315160905627e-07,1.2065614086055408e-07,2.15840987724499e-07,2.0508775019908563e-07,1.271408786070435e-07,1.295585078895713e-07,2.833527670430786e-07,1.9038398556990755e-07,-2.5192252807732414e-08,-1.0379477917624793e-07,1.9038398556990755e-07,1.6151610459196206e-07,-1.0379477917624793e-07,7.661174523741636e-08,1.6151610459196206e-07,7.661174523741636e-08,1.6151610459196206e-07,7.661174523741636e-08,1.8843395862319233e-07,3.110518669769648e-07,1.396113414665669e-07,1.6809774846566686e-07,3.110518669769648e-07,2.9859412585575597e-07,1.6089329445136476e-07,1.5632667867764287e-07,3.0260130860157874e-07,2.597182481930764e-07,1.545816171225865e-07,1.7836093394786032e-07,3.301629758676054e-07,1.8666403761330285e-07,-3.644789156999757e-08,-8.442488981402673e-08,1.8666403761330285e-07,2.5975237597924893e-07,-8.442488981402673e-08,1.1947015566470657e-07,2.5975237597924893e-07,1.1947015566470657e-07,2.5975237597924893e-07,1.1947015566470657e-07
sub-101,4,1.3575110515021427e-07,2.0926588139067646e-07,6.76372080849757e-08,6.830097142746665e-08,2.0926588139067646e-07,2.1047360648582433e-07,1.945438877503502e-07,2.0865255772633495e-07,2.426617023361241e-07,2.0365841361701292e-07,2.2013777546703235e-07,2.2204963969999347e-07,3.2021904876488285e-07,1.406506852694213e-07,9.150558427804154e-08,5.32532239645624e-08,1.406506852694213e-07,2.2812120269601436e-07,5.32532239645624e-08,2.037154678143152e-07,2.2812120269601436e-07,2.037154678143152e-07,2.2812120269601436e-07,2.037154678143152e-07,5.5031914705729705e-08,-1.1743842611491764e-08,-3.260678491633517e-08,-1.043872723510529e-08,-1.1743842611491764e-08,-1.9115037086391287e-08,4.0566552558698205e-08,2.464532552967069e-08,-2.862131727015769e-09,-2.191558893843865e-08,3.8300498151250596e-08,2.0865357540299712e-08,9.00674395129825e-08,1.6388037304197764e-08,1.479612567315133e-08,-3.780616435476766e-08,1.6388037304197764e-08,-4.482421024398237e-08,-3.780616435476766e-08,3.4284933821777516e-08,-4.482421024398237e-08,3.4284933821777516e-08,-4.482421024398237e-08,3.4284933821777516e-08,2.013063338102244e-08,-9.449448509537002e-09,-6.173811133962137e-08,-3.7798317344648366e-08,-9.449448509537002e-09,-6.19159954308665e-09,2.709406302296543e-08,5.0094702520071325e-08,4.3142690913620806e-08,9.815735868113157e-09,6.083729634768083e-08,6.386032698171344e-08,4.4035282653225285e-08,-3.780425189866418e-08,-1.7138438076901868e-08,-3.116378723357092e-08,-3.780425189866418e-08,4.180817360827077e-08,-3.116378723357092e-08,5.358096097339898e-08,4.180817360827077e-08,5.358096097339898e-08,4.180817360827077e-08,5.358096097339898e-08
sub-101,2,7.098632800448971e-08,1.2027029142853014e-07,3.965859239715281e-08,8.544460908415947e-10,1.2027029142853014e-07,7.700363802348557e-08,1.1419985492621912e-07,1.0564310973366475e-07,8.119686409096991e-08,1.2650343139608294e-07,1.9408141622778367e-08,7.67966857895009e-08,1.0571003623234986e-07,1.0486467806377842e-07,1.0643534159552714e-07,1.3905006499331415e-08,1.0486467806377842e-07,5.4877135548085926e-08,1.3905006499331415e-08,2.7552108415149408e-08,5.4877135548085926e-08,2.7552108415149408e-08,5.4877135548085926e-08,2.7552108415149408e-08,-9.925695794062085e-09,-9.427154379651587e-08,-7.506552641434804e-09,-2.432002189390183e-08,-9.427154379651587e-08,-9.439638669086148e-08,-3.1344318979675185e-08,-7.768272298698583e-09,-1.0892910158659077e-07,-1.0406523321154473e-08,-1.0991915459913773e-07,-7.186457518513486e-08,-8.190562592271246e-08,4.640161302459506e-08,1.010249303489134e-07,9.494317831968804e-08,4.640161302459506e-08,-1.5500410698864853e-07,9.494317831968804e-08,-5.60941162821456e-08,-1.5500410698864853e-07,-5.60941162821456e-08,-1.5500410698864853e-07,-5.60941162821456e-08,3.13697627699853e-09,-3.078193948661433e-08,6.946936012786395e-10,-8.80079097445912e-09,-3.078193948661433e-08,-2.5932943129738058e-08,-1.3120935651762198e-08,3.6163053571225955e-08,-3.0121665112322226e-08,4.623169395422846e-08,-9.204737630982183e-08,-1.1855061129399583e-08,-7.253142720635038e-08,9.250764414757371e-08,8.458259410571372e-08,1.1797705166298016e-07,9.250764414757371e-08,-5.194318253373198e-08,1.1797705166298016e-07,-2.4008822794216435e-09,-5.194318253373198e-08,-2.4008822794216435e-09,-5.194318253373198e-08,-2.4008822794216435e-09
sub-101,3,9.69203953475775e-08,1.3488257379185838e-07,-1.6965543036479708e-08,3.4310689308208944e-08,1.3488257379185838e-07,1.52900291500282e-07,6.008772413095215e-08,1.0711832768212021e-07,1.5642045791558543e-07,1.1351235937273264e-07,6.783725266655425e-08,1.1032831249164049e-07,2.1758291951497067e-07,1.4292793134512197e-07,-1.4219706678227048e-08,-6.469993199501815e-09,1.4292793134512197e-07,1.7483057641454468e-07,-6.469993199501815e-09,8.73691076360149e-08,1.7483057641454468e-07,8.73691076360149e-08,1.7483057641454468e-07,8.73691076360149e-08,1.17618020732571e-08,3.583590657535725e-08,-1.1909463618938272e-07,-6.254253916087591e-08,3.583590657535725e-08,3.2427542098533805e-08,-4.8664358578453834e-08,-1.3634927914812295e-08,1.3839330110899506e-08,-9.095370298773255e-09,-1.9874769192180963e-08,-1.560142155564336e-08,9.343030748547122e-08,1.5801473299269418e-08,-8.000771103499172e-08,-7.34733391808162e-08,1.5801473299269418e-08,4.735554096437326e-08,-7.34733391808162e-08,4.1635279188293846e-09,4.735554096437326e-08,4.1635279188293846e-09,4.735554096437326e-08,4.1635279188293846e-09,-8.07570564655807e-10,1.499793468146718e-08,-1.3068287815106993e-07,-7.009618921644705e-08,1.499793468146718e-08,3.53544517715327e-08,-6.531666493023995e-08,-1.1090044767029299e-08,1.5546382654435583e-08,-2.818577374801781e-09,-3.428591569818399e-08,-4.7459530039496855e-09,5.067121180847982e-08,9.24359412241202e-11,-7.981318825511504e-08,-6.580830407959879e-08,9.24359412241202e-11,6.945682122217708e-08,-6.580830407959879e-08,8.26640197279478e-09,6.945682122217708e-08,8.26640197279478e-09,6.945682122217708e-08,8.26640197279478e-09
sub-101,1,-4.4758113807830816e-08,-2.163566714982573e-08,7.319530209054418e-09,-4.3055454492375e-08,-2.163566714982573e-08,-9.217062063495162e-10,-3.2289968924725027e-09,-3.1532005999551288e-09,1.9688272363919038e-08,5.7656825600607265e-08,-3.029191006178656e-08,-3.363614276526203e-08,-1.4965141431009685e-08,-6.521614864073165e-08,2.384346654324934e-08,3.8548244842156e-09,-6.521614864073165e-08,-3.092704374349942e-08,3.8548244842156e-09,5.803049488772081e-09,-3.092704374349942e-08,5.803049488772081e-09,-3.092704374349942e-08,5.803049488772081e-09,-1.4425791344621446e-07,-2.072391515456341e-07,-7.174106783881461e-08,-6.582343668107256e-08,-2.072391515456341e-07,-1.7461494851128825e-07,-1.494553577743407e-07,-1.4124219906562641e-07,-1.7228739546419032e-07,-9.296584027667201e-08,-1.7787738533952992e-07,-1.744472775432013e-07,-2.8843175416031597e-07,-2.2225937828481988e-07,-1.1600386319321862e-08,1.5044927318720277e-08,-2.2225937828481988e-07,-2.2341668441598234e-07,1.5044927318720277e-08,-1.119994600917264e-07,-2.2341668441598234e-07,-1.119994600917264e-07,-2.2341668441598234e-07,-1.119994600917264e-07,-1.268352434544222e-07,-1.5203284784667655e-07,-4.447827594507384e-08,-2.54858792617597e-08,-1.5203284784667655e-07,-1.0387829536090585e-07,-8.778409099302627e-08,-7.413638972487004e-08,-8.955071534703683e-08,-3.166980714661516e-08,-1.0825567863361337e-07,-9.258045854741186e-08,-2.4710281868627836e-07,-1.3934703599345644e-07,-5.274573120682124e-09,3.476053394271437e-08,-1.3934703599345644e-07,-1.0612117600685315e-07,3.476053394271437e-08,-4.7036443402946005e-08,-1.0612117600685315e-07,-4.7036443402946005e-08,-1.0612117600685315e-07,-4.7036443402946005e-08
sub-101,4,1.893554960062051e-07,1.6438973720959153e-07,2.1410641307852905e-07,1.1741784961525148e-07,1.6438973720959153e-07,1.4740444680963715e-07,1.4825851234777233e-07,5.2678280726588025e-08,1.4052560963111383e-07,7.12989138797547e-08,5.81175168191896e-08,1.052541494771942e-07,1.617191778206661e-07,1.4673141265908836e-07,9.327819717001261e-08,-5.1307631196188345e-08,1.4673141265908836e-07,1.1981487674260661e-07,-5.1307631196188345e-08,6.743618505612041e-08,1.1981487674260661e-07,6.743618505612041e-08,1.1981487674260661e-07,6.743618505612041e-08,2.2672008230754682e-07,1.3977527661511857e-07,2.343001010930383e-07,1.547792558571304e-07,1.3977527661511857e-07,1.4142914789597927e-07,1.8643352601894917e-07,2.243653769329973e-08,1.1712291771827821e-07,3.70446906670785e-08,4.123674026319044e-08,8.984943890142782e-08,1.2516042366324918e-07,1.9740609691644157e-07,1.1231864703138338e-07,-7.40056899555404e-08,1.9740609691644157e-07,1.0359960678808542e-07,-7.40056899555404e-08,5.174285629421598e-08,1.0359960678808542e-07,5.174285629421598e-08,1.0359960678808542e-07,5.174285629421598e-08,2.3704928688012756e-07,2.1402115529459326e-07,2.3196691444875028e-07,1.5106120719511262e-07,2.1402115529459326e-07,2.398044645740477e-07,2.4342760994427817e-07,1.0405348287192333e-07,2.2538321588069887e-07,1.4120979212871477e-07,8.357194559848107e-08,1.5464539709880462e-07,2.0888242976854674e-07,2.514770437711745e-07,1.250804171863093e-07,-5.323314788102119e-08,2.514770437711745e-07,2.1700912901683835e-07,-5.323314788102119e-08,1.2471295354225874e-07,2.1700912901683835e-07,1.2471295354225874e-07,2.1700912901683835e-07,1.2471295354225874e-07
sub-101,2,-2.787911766003428e-08,1.3040740953596355e-07,-5.546959357818452e-08,-6.18858085594683e-08,1.3040740953596355e-07,8.99040024262563e-08,2.023097712939225e-08,5.7312327000850274e-08,1.260671857771959e-07,9.844612641363021e-08,4.698505144845212e-08,7.418432323095268e-08,-3.8137154127663326e-08,2.8317908094282795e-09,-6.136458651026721e-08,-4.547150460080092e-08,2.8317908094282795e-09,1.3876583241561642e-07,-4.547150460080092e-08,3.200093372028353e-08,1.3876583241561642e-07,3.200093372028353e-08,1.3876583241561642e-07,3.200093372028353e-08,-1.2475454222647238e-07,-7.558864966307544e-08,-1.6738631774852005e-07,-1.4369751627013573e-07,-7.558864966307544e-08,-1.1006517493033458e-07,-1.5176282592462766e-07,-7.196565418031567e-08,-8.00870018056007e-08,-6.308921999895953e-08,-9.91957089375963e-08,-7.390531003352948e-08,-2.6860632668679865e-07,-1.7499753908531995e-07,-1.6775774975870708e-07,-1.105292475046378e-07,-1.7499753908531995e-07,-1.267394416445829e-07,-1.105292475046378e-07,-1.1979258249189274e-07,-1.267394416445829e-07,-1.1979258249189274e-07,-1.267394416445829e-07,-1.1979258249189274e-07,-1.6062997798764023e-07,-1.2441885720427434e-07,-1.84666573641182e-07,-1.6706171079600522e-07,-1.2441885720427434e-07,-1.272670059517354e-07,-2.0547473082572107e-07,-5.862124757692889e-08,-8.148720527893361e-08,-7.614813090403317e-08,-1.0923322863155387e-07,-5.880320508873598e-08,-3.865985319733262e-07,-2.571253863045341e-07,-2.0386800526178673e-07,-1.1646475665159811e-07,-2.571253863045341e-07,-1.7010241147920837e-07,-1.1646475665159811e-07,-1.5908217686922854e-07,-1.7010241147920837e-07,-1.5908217686922854e-07,-1.7010241147920837e-07,-1.5908217686922854e-07
sub-101,1,4.8045263058796467e-08,-6.500799700371917e-08,1.4327936724850118e-07,2.814667342482143e-07,-6.500799700371917e-08,9.569204772205574e-09,-7.715861344841302e-09,-8.60451385595399e-08,-4.475322244991644e-08,-9.343188093019437e-10,-3.8654787010193095e-08,1.9061050776387683e-08,-1.3840768295084772e-08,7.378781515612484e-08,9.728816552130057e-08,1.0644733845258021e-07,7.378781515612484e-08,-1.9309411131945885e-07,1.0644733845258021e-07,-1.2187002758850606e-07,-1.9309411131945885e-07,-1.2187002758850606e-07,-1.9309411131945885e-07,-1.2187002758850606e-07,-1.5424039710643024e-07,-3.083729317183136e-07,-3.0370325928592024e-08,1.2762014461500616e-07,-3.083729317183136e-07,-2.1764335064329668e-07,-2.6892073259324013e-07,-2.965917182341205e-07,-2.4516363205709023e-07,-2.116937015509284e-07,-2.725958488373203e-07,-2.1534736717456342e-07,-4.203472554505437e-07,-2.077445362771484e-07,-6.441949550683597e-08,-4.0004457780568895e-09,-2.077445362771484e-07,-4.391273142795265e-07,-4.0004457780568895e-09,-3.5153092325119417e-07,-4.391273142795265e-07,-3.5153092325119417e-07,-4.391273142795265e-07,-3.5153092325119417e-07,-7.00274656726137e-08,-1.6342551628832137e-07,3.314964470341846e-08,1.9108138789850043e-07,-1.6342551628832137e-07,-8.039535706347662e-08,-1.1009003695057751e-07,-1.7605048432689815e-07,-7.496204840589924e-08,-6.553436426553899e-08,-1.1720318538792626e-07,-8.502822980203221e-08,-2.2397392516668453e-07,-6.654237417064231e-08,-4.5455313592476197e-08,-3.036420488907808e-08,-6.654237417064231e-08,-2.3226428039037758e-07,-3.036420488907808e-08,-2.3498881399148134e-07,-2.3226428039037758e-07,-2.3498881399148134e-07,-2.3226428039037758e-07,-2.3498881399148134e-07
sub-101,4,-1.1081868145587513e-07,-1.5575053521135667e-07,-1.5784101519912063e-07,-1.437332993576971e-07,-1.5575053521135667e-07,-1.2519821268917987e-07,-2.290056527317728e-07,-8.225221763799761e-08,-1.1880274268615729e-07,-1.3314308110306993e-07,-1.6201694139359113e-07,-1.0455446458499435e-07,-7.062794733361825e-08,-5.307774781494601e-08,-1.0702944210582826e-07,-4.9042820782924716e-08,-5.307774781494601e-08,-1.4452058486039082e-07,-4.9042820782924716e-08,-9.908739912021316e-08,-1.4452058486039082e-07,-9.908739912021316e-08,-1.4452058486039082e-07,-9.908739912021316e-08,-1.29732661393863e-07,-1.3055298096892877e-07,-1.984020085886726e-07,-2.0246413096725956e-07,-1.3055298096892877e-07,-1.5508158691704985e-07,-2.257787748004262e-07,-4.620229006805079e-08,-1.6597715924610587e-07,-1.3592260874926777e-07,-1.5072321923855086e-07,-1.0198084296969565e-07,-2.970282162269952e-08,-6.148268089867338e-08,-1.7620879372075558e-07,-1.6752949296750012e-07,-6.148268089867338e-08,-1.4374372301176084e-07,-1.6752949296750012e-07,-8.581585717885829e-08,-1.4374372301176084e-07,-8.581585717885829e-08,-1.4374372301176084e-07,-8.581585717885829e-08,-1.6065107773801363e-08,-2.2497438993654834e-08,-1.0922253742731692e-07,-1.1931593852665903e-07,-2.2497438993654834e-08,-4.369753251395184e-08,-8.433369712510857e-08,1.556195399418966e-08,-1.0076602339454245e-07,-1.0553379040186671e-07,-4.608812442290561e-08,-1.5498425895587166e-08,1.5995868699920833e-07,8.118038382324126e-08,-9.303737750143374e-08,-9.391014589281483e-08,8.118038382324126e-08,-4.684077540403139e-08,-9.391014589281483e-08,-1.882996460352767e-09,-4.684077540403139e-08,-1.882996460352767e-09,-4.684077540403139e-08,-1.882996460352767e-09
sub-101,3,-5.574983387232643e-08,-1.4391244470806673e-07,5.019083581165374e-08,-2.2585209367029385e-08,-1.4391244470806673e-07,-1.001734151515028e-07,-5.7924703255432307e-08,-1.1499321704220413e-07,-1.046151848293404e-07,-1.3335372732555273e-07,-4.513131037782865e-08,-7.6579573102961e-08,-1.1820310993099211e-07,-5.3808911253587255e-08,1.4900314848222862e-07,1.561444382338679e-07,-5.3808911253587255e-08,-1.5562992431567117e-07,1.561444382338679e-07,-9.475044138344555e-08,-1.5562992431567117e-07,-9.475044138344555e-08,-1.5562992431567117e-07,-9.475044138344555e-08,-8.802257993123313e-08,-1.7526908297152197e-07,4.428040480286252e-08,1.108721065270163e-08,-1.7526908297152197e-07,-9.779571337576311e-08,-6.079720650417069e-08,-6.422469787759204e-08,-6.532307699969484e-08,-7.087715323408696e-08,-1.3754522009257894e-08,-1.1035057394682535e-08,-1.7425800754433386e-07,-7.086048888326991e-08,1.9554208381065108e-07,2.3362714605932368e-07,-7.086048888326991e-08,-1.0229865514244277e-07,2.3362714605932368e-07,-9.169309456790511e-08,-1.0229865514244277e-07,-9.169309456790511e-08,-1.0229865514244277e-07,-9.169309456790511e-08,-1.4303543042330311e-08,-4.9713750638982085e-08,4.591202383014046e-08,2.1789030752462063e-08,-4.9713750638982085e-08,4.269606483722187e-09,2.1713082821158705e-08,2.8365104093668238e-08,3.7706482234398066e-08,1.9374097839818668e-08,6.206618745570644e-08,7.866241416924728e-08,-1.0586086492322911e-07,-1.1574850327100179e-08,1.5894345678100012e-07,1.744204385462851e-07,-1.1574850327100179e-08,-6.4826593131040735e-09,1.744204385462851e-07,-3.354265466050851e-08,-6.4826593131040735e-09,-3.354265466050851e-08,-6.4826593131040735e-09,-3.354265466050851e-08
sub-101,2,6.02892503893747e-08,1.5670583920860714e-07,-1.0889941527323066e-08,-8.55329550574037e-08,1.5670583920860714e-07,1.331918899604008e-07,1.073676357781952e-07,1.251615457620293e-07,5.2609867484247287e-08,9.191312130206271e-08,9.789970408573794e-09,6.885994978860342e-08,1.5084560762151628e-08,1.2538339848014149e-08,-8.838883763148689e-08,-1.4769005625779618e-07,1.2538339848014149e-08,1.3084177336046196e-07,-1.4769005625779618e-07,1.171234712558605e-07,1.3084177336046196e-07,1.171234712558605e-07,1.3084177336046196e-07,1.171234712558605e-07,-4.951799151513031e-08,-1.829766267240607e-08,-8.772024396023682e-08,-1.1026131753755773e-07,-1.829766267240607e-08,2.688900442785213e-08,-1.722427070076966e-08,5.1244512893467105e-08,-5.660125267815925e-08,-7.76723901646082e-09,-8.584754466541948e-08,1.182729901558205e-08,-1.2111517126548368e-07,-1.7071778706957766e-08,-1.0462044592615486e-07,-5.270255527645554e-08,-1.7071778706957766e-08,1.9872113067836113e-08,-5.270255527645554e-08,8.697964930332466e-09,1.9872113067836113e-08,8.697964930332466e-09,1.9872113067836113e-08,8.697964930332466e-09,3.199617500314991e-08,1.7349575421837008e-07,-1.1277629702927089e-08,-3.149522869081993e-08,1.7349575421837008e-07,1.9058534807208994e-07,8.683360018919612e-08,1.805207419376384e-07,1.5015113426532065e-07,1.3474363195612596e-07,3.19613165319286e-08,1.461803941202628e-07,5.397532304677121e-08,7.831890559656504e-08,-2.8009333211258418e-08,6.105961348237197e-08,7.831890559656504e-08,2.028374134310832e-07,6.105961348237197e-08,1.2329235758905357e-07,2.028374134310832e-07,1.2329235758905357e-07,2.028374134310832e-07,1.2329235758905357e-07
sub-101,2,-2.6257586654895226e-09,9.111264507014916e-08,-1.1280062525308068e-07,-6.483458376669655e-08,9.111264507014916e-08,1.2643071280752717e-08,-1.589340840729123e-08,-7.176027228261943e-09,6.525646546194998e-08,3.8135932355068366e-08,-7.946658616202566e-09,-1.912946979945488e-08,-1.3421544378164953e-08,-2.3566853041779624e-08,-5.140641675241278e-08,3.3608458300904186e-09,-2.3566853041779624e-08,5.034283757501144e-08,3.3608458300904186e-09,1.6347809993753308e-08,5.034283757501144e-08,1.6347809993753308e-08,5.034283757501144e-08,1.6347809993753308e-08,-5.138342995449774e-08,-5.373809036129183e-08,-1.3893347774171864e-07,-1.0504434860950158e-07,-5.373809036129183e-08,-6.538732622164709e-08,-8.399315090916337e-08,-6.484552702777948e-08,-3.934744863952185e-08,-9.129610098909367e-09,-4.0609278963373544e-08,-6.841701793172715e-08,-9.290594888239576e-08,-8.638203701045842e-08,-7.070462162416297e-08,-3.151601676273209e-08,-8.638203701045842e-08,-4.218771586847161e-08,-3.151601676273209e-08,-3.261576117414006e-08,-4.218771586847161e-08,-3.261576117414006e-08,-4.218771586847161e-08,-3.261576117414006e-08,-9.981734859951705e-08,-7.263871573740729e-08,-1.2197270703393547e-07,-6.903708796045836e-08,-7.263871573740729e-08,-5.997097646306408e-08,-1.1691405378317913e-07,-1.0314355784522528e-07,-6.221954463435032e-09,-3.50002219213248e-08,-5.145085079316644e-08,-8.532269798494917e-08,-1.6856379009468773e-07,-9.886691099347253e-08,-6.137358675392224e-08,2.271123098172203e-08,-9.886691099347253e-08,-4.743289334432988e-08,2.271123098172203e-08,-6.113869167368906e-08,-4.743289334432988e-08,-6.113869167368906e-08,-4.743289334432988e-08,-6.113869167368906e-08
sub-101,1,1.4639895510845228e-07,1.627734532859824e-07,1.6598611643150427e-07,8.295119324567615e-08,1.627734532859824e-07,1.5031477846682405e-07,1.5213363238876527e-07,1.2688504706069086e-07,9.631506800062996e-08,1.2726726559162136e-07,1.2625531032968801e-07,1.238872753847644e-07,1.9310639285568415e-07,9.046379567435782e-08,8.907069823970251e-08,1.154425222384264e-08,9.046379567435782e-08,7.529662643237641e-08,1.154425222384264e-08,1.0440786508583355e-07,7.529662643237641e-08,1.0440786508583355e-07,7.529662643237641e-08,1.0440786508583355e-07,7.811389920066044e-08,-3.172777796481386e-09,2.0477897641085122e-07,1.3575736199891369e-07,-3.172777796481386e-09,2.2337973130040273e-08,5.0925241398261725e-08,3.191985616257682e-08,-2.1208368456731258e-08,2.6438240810857456e-08,4.699933488943894e-08,3.8866154595235676e-08,2.1269738672719267e-07,1.0837655843700927e-07,1.1971348460456597e-07,7.829950732143186e-08,1.0837655843700927e-07,-4.568813169673971e-08,7.829950732143186e-08,1.2411082682576042e-09,-4.568813169673971e-08,1.2411082682576042e-09,-4.568813169673971e-08,1.2411082682576042e-09,1.0092544943528326e-07,1.2243698080936233e-07,2.531057450768579e-07,2.0247289956943886e-07,1.2243698080936233e-07,1.2969277546312654e-07,1.1344221758906645e-07,1.2522572204418853e-07,1.2158296980038624e-07,9.75865314171087e-08,1.1596225218296835e-07,1.1903762764966092e-07,2.2065138789634306e-07,1.538167664996711e-07,1.6516448743024054e-07,1.3454864426156454e-07,1.538167664996711e-07,7.666275909297582e-08,1.3454864426156454e-07,6.351297285577977e-08,7.666275909297582e-08,6.351297285577977e-08,7.666275909297582e-08,6.351297285577977e-08
sub-101,4,2.486171172275788e-08,-1.1115568219179117e-08,-2.4071923704134673e-07,-8.872860877947498e-08,-1.1115568219179117e-08,-5.249172224257456e-08,-5.9443635918823104e-08,-9.492548597894565e-08,-1.0368710170649577e-07,-8.00045332440273e-08,-6.05145348142653e-08,-7.020183087523109e-08,-7.393599611945976e-08,-4.5262834088818095e-08,-6.110116085509815e-08,-4.632060392914897e-08,-4.5262834088818095e-08,-1.5046154307375235e-07,-4.632060392914897e-08,-1.0987448788016049e-07,-1.5046154307375235e-07,-1.0987448788016049e-07,-1.5046154307375235e-07,-1.0987448788016049e-07,-1.207184937017979e-09,4.85753371949453e-09,-2.8214745960385706e-07,-1.3568251345345585e-07,4.85753371949453e-09,-5.5221758765075136e-08,-7.751879740531162e-08,-5.738705299202471e-08,-4.122282767354602e-08,-5.5874365222399765e-08,-6.940377773144727e-08,-5.2999495506118716e-08,-9.054215990591137e-08,-5.723121770693485e-08,-9.134104712572761e-08,-5.534587237148023e-11,-5.723121770693485e-08,-8.595036676604506e-08,-5.534587237148023e-11,-1.0281296300878382e-07,-8.595036676604506e-08,-1.0281296300878382e-07,-8.595036676604506e-08,-1.0281296300878382e-07,3.051910339063699e-08,6.887445754459995e-08,-2.229583747637712e-07,-9.368852154614549e-08,6.887445754459995e-08,-7.250985496452765e-09,-1.341321592082829e-08,-1.5735632163179807e-08,1.439208395989433e-08,-2.252424165904575e-09,-2.3378932832152248e-08,-9.777986703225163e-09,-4.2933982621605875e-08,-2.9228860280003812e-08,-6.223648081164355e-08,-3.032878954136448e-08,-2.9228860280003812e-08,-4.314113761116456e-08,-3.032878954136448e-08,-7.201434712664152e-08,-4.314113761116456e-08,-7.201434712664152e-08,-4.314113761116456e-08,-7.201434712664152e-08
sub-101,3,9.700526861659943e-08,2.0939018052253954e-07,-1.051113993432344e-08,1.4541172359251374e-08,2.0939018052253954e-07,1.2650438033844518e-07,1.2374830157072184e-07,1.297615364779599e-07,1.366354405314207e-07,1.4515056233295716e-07,1.1730430146664335e-07,1.4923266182083531e-07,1.4615140819960347e-07,7.09825870547337e-08,1.711588496980896e-08,-5.093519020220583e-08,7.09825870547337e-08,1.14147297989707e-07,-5.093519020220583e-08,1.429577657850649e-07,1.14147297989707e-07,1.429577657850649e-07,1.14147297989707e-07,1.429577657850649e-07,5.307370450742912e-08,9.07518066012862e-08,-1.9718574334922696e-08,-2.738093671159448e-09,9.07518066012862e-08,4.841444440663317e-08,5.62091352479016e-08,7.280165831856116e-08,7.398644901528561e-08,1.1036646346590998e-07,4.330072442657781e-08,1.192991926833196e-07,9.667978387275208e-08,5.6916053892174574e-08,2.5820862629347438e-08,-7.276507481060597e-08,5.6916053892174574e-08,8.970172235514236e-08,-7.276507481060597e-08,9.818329379231555e-08,8.970172235514236e-08,9.818329379231555e-08,8.970172235514236e-08,9.818329379231555e-08,1.1053926959282157e-07,2.1834705774080709e-07,3.1173614314162344e-08,1.8395473990638952e-08,2.1834705774080709e-07,1.6584775408802054e-07,1.0924243642909686e-07,1.7991591207883956e-07,2.467470839585951e-07,2.3332096898020216e-07,1.1343857066377573e-07,2.2083171752715337e-07,1.6958810846857248e-07,1.262224747268699e-07,1.8695243969025074e-09,-2.814337558123481e-08,1.262224747268699e-07,2.1842388268533808e-07,-2.814337558123481e-08,1.9542273827061159e-07,2.1842388268533808e-07,1.9542273827061159e-07,2.1842388268533808e-07,1.9542273827061159e-07
sub-101,2,1.5995301121649484e-07,2.0397788726468283e-07,1.78669749161396e-07,1.758881929560123e-07,2.0397788726468283e-07,1.71522998023426e-07,1.6291172788237067e-07,1.061488229250605e-07,1.1395641761222376e-07,5.950071677777763e-08,1.7227803243145536e-07,6.65051634833063e-08,3.24630522906491e-07,2.159989869785277e-07,7.116314257644961e-08,-1.6537348782650816e-08,2.159989869785277e-07,9.117740287330341e-08,-1.6537348782650816e-08,1.0650732054369655e-07,9.117740287330341e-08,1.0650732054369655e-07,9.117740287330341e-08,1.0650732054369655e-07,1.299979558290045e-07,1.260150432096279e-07,1.6739836205147559e-07,1.4618509876369355e-07,1.260150432096279e-07,1.4205274716853858e-07,9.242786870686499e-08,5.5796909391286527e-08,6.825478215641492e-08,1.1085354399528742e-08,1.3131525845913761e-07,1.1991776243873806e-08,2.3747399330335694e-07,1.88491837530181e-07,4.034252402466754e-08,-1.2230066241073596e-07,1.88491837530181e-07,4.711662479682734e-08,-1.2230066241073596e-07,4.8358037646845535e-08,4.711662479682734e-08,4.8358037646845535e-08,4.711662479682734e-08,4.8358037646845535e-08,1.3198930478655956e-07,1.5976190920657605e-07,1.2517217995927854e-07,1.0987123382797855e-07,1.5976190920657605e-07,1.4979532726238052e-07,1.0291203210958313e-07,6.813243957116175e-08,9.747493447408804e-08,1.9276082849420445e-08,1.2872702465092644e-07,3.162342345795452e-08,1.9649842029295024e-07,1.8011278815499765e-07,2.1889246752360175e-08,-9.492789004541761e-08,1.8011278815499765e-07,5.161606154080039e-08,-9.492789004541761e-08,4.770606174590666e-08,5.161606154080039e-08,4.770606174590666e-08,5.161606154080039e-08,4.770606174590666e-08
sub-101,3,-1.0262566524959822e-08,-1.257439664998211e-08,-8.999758968544989e-08,-6.843163487841555e-08,-1.257439664998211e-08,1.8271583235210894e-08,-5.551267257581364e-08,2.1346203860996447e-08,1.6329017225564007e-09,5.3091893589644846e-08,-2.7665382326837125e-08,4.562483467158102e-08,-3.473538816932753e-08,-4.4931456519357094e-08,-7.595820628112352e-08,-3.9291576143151476e-08,-4.4931456519357094e-08,-1.4540931886395297e-09,-3.9291576143151476e-08,5.157438585008833e-08,-1.4540931886395297e-09,5.157438585008833e-08,-1.4540931886395297e-09,5.157438585008833e-08,-1.8902109691610564e-07,-2.5196497804102916e-07,-2.3372531610163354e-07,-1.7397694389095235e-07,-2.5196497804102916e-07,-1.8623394654506497e-07,-2.685671992545121e-07,-1.6407897429790637e-07,-1.9467371516364728e-07,-1.2123499318572125e-07,-2.127381452123282e-07,-1.2668827795002554e-07,-3.921643155292223e-07,-2.62467136074297e-07,-1.5457627841777454e-07,-7.375778223907582e-08,-2.62467136074297e-07,-2.0635503320449296e-07,-7.375778223907582e-08,-1.301491675941491e-07,-2.0635503320449296e-07,-1.301491675941491e-07,-2.0635503320449296e-07,-1.301491675941491e-07,-1.987412578720389e-07,-2.2019111903568227e-07,-2.2552433644784856e-07,-1.8048736954745937e-07,-2.2019111903568227e-07,-1.698226902341037e-07,-2.600053789745895e-07,-1.525971660389135e-07,-1.6715283838948572e-07,-1.3258415519484479e-07,-1.9326400096380925e-07,-1.2784307479513288e-07,-3.653632244408273e-07,-2.7736919274028227e-07,-1.0724020230405499e-07,3.348349848206664e-09,-2.7736919274028227e-07,-1.7717976120806254e-07,3.348349848206664e-09,-1.1613462476842308e-07,-1.7717976120806254e-07,-1.1613462476842308e-07,-1.7717976120806254e-07,-1.1613462476842308e-07
sub-101,1,-5.802337083409069e-08,-2.250928110948691e-08,2.8811200010752977e-08,8.599001617017545e-08,-2.250928110948691e-08,2.1958006491527005e-08,1.9663395548608876e-08,6.674547809463284e-08,1.18635348411438e-07,1.0862347459485179e-07,1.0401502404731745e-07,9.622173955794876e-08,-1.2506580973750839e-08,8.958337252363218e-09,8.774360637923456e-09,1.4738038580937493e-07,8.958337252363218e-09,1.1164096734329033e-07,1.4738038580937493e-07,5.46295183246203e-13,1.1164096734329033e-07,5.46295183246203e-13,1.1164096734329033e-07,5.46295183246203e-13,6.820039691622508e-08,1.5641884602650137e-07,1.532139560213368e-07,2.2111741537071837e-07,1.5641884602650137e-07,1.9310787708187004e-07,2.0850327413740718e-07,1.9901589019571264e-07,2.8450333205057597e-07,2.5332254943717316e-07,2.7214067820090443e-07,2.1203480864078762e-07,1.7430302852839307e-07,1.1868699476675572e-07,4.3704863469158036e-08,7.033375333296523e-08,1.1868699476675572e-07,2.0772083337572186e-07,7.033375333296523e-08,6.317429117247271e-08,2.0772083337572186e-07,6.317429117247271e-08,2.0772083337572186e-07,6.317429117247271e-08,8.362808019040124e-08,1.3667319994821337e-07,1.358287297754101e-07,1.8561086674230005e-07,1.3667319994821337e-07,1.6868970353140917e-07,1.645440495984349e-07,1.6888649251089725e-07,2.167771942024678e-07,1.9947135634849365e-07,1.7665290740361728e-07,1.4904356992874923e-07,1.0258305688295568e-07,9.72238801477637e-08,6.870298516923983e-08,8.015595516275116e-08,9.72238801477637e-08,1.666516765306182e-07,8.015595516275116e-08,4.555894908597183e-08,1.666516765306182e-07,4.555894908597183e-08,1.666516765306182e-07,4.555894908597183e-08
sub-101,4,-1.2907163248329312e-07,-2.7077366784892093e-07,-6.446931639870734e-08,1.6843573273086587e-08,-2.7077366784892093e-07,-1.7926365310397607e-07,-2.091183597794562e-07,-1.3308487295147755e-07,-1.4713745873971665e-07,-1.2947234676920567e-07,-1.623149986280759e-07,-1.2414383111483448e-07,-2.8979231781540415e-07,-9.824760892034623e-08,6.722194552630003e-08,-1.4518254122181245e-08,-9.824760892034623e-08,-1.6688246940455843e-07,-1.4518254122181245e-08,-1.1901322896888964e-07,-1.6688246940455843e-07,-1.1901322896888964e-07,-1.6688246940455843e-07,-1.1901322896888964e-07,-1.2604958030070395e-07,-2.733519830070329e-07,-8.320741205290324e-08,1.8508844935891022e-08,-2.733519830070329e-07,-2.0306140822582064e-07,-2.0408298716665224e-07,-1.4265165403510307e-07,-1.5345803096740893e-07,-1.7130847887407291e-07,-1.276572607724986e-07,-1.1972539253969836e-07,-2.864644225310429e-07,-5.024664341979416e-08,4.89277670129044e-09,-8.920568515732793e-08,-5.024664341979416e-08,-2.2036911712400372e-07,-8.920568515732793e-08,-1.1029872807908129e-07,-2.2036911712400372e-07,-1.1029872807908129e-07,-2.2036911712400372e-07,-1.1029872807908129e-07,-1.1469084288135827e-07,-2.5098841870923316e-07,-1.3584848219219558e-07,-2.9391712617628553e-08,-2.5098841870923316e-07,-2.3367286081176572e-07,-2.0129822471795545e-07,-1.712271966990171e-07,-2.444495182084274e-07,-2.4944498639141225e-07,-1.4529677881790528e-07,-1.702463190164954e-07,-3.145108626269488e-07,-9.261188386159237e-08,-4.4414786675821584e-08,-1.329434116335886e-07,-9.261188386159237e-08,-2.2343366507553794e-07,-1.329434116335886e-07,-1.2898530180171096e-07,-2.2343366507553794e-07,-1.2898530180171096e-07,-2.2343366507553794e-07,-1.2898530180171096e-07
sub-101,1,4.455211514072416e-09,-5.998499522206675e-08,3.874848186897578e-08,2.3070228092803895e-08,-5.998499522206675e-08,-3.618847820787708e-08,3.373339596629789e-08,-1.4828151514979324e-08,-9.839201778626411e-08,-3.5949816527811325e-08,9.474158732047094e-08,5.44594038522673e-08,7.906445144128615e-08,4.991103563678165e-08,3.781862266268712e-08,4.1829821135847816e-08,4.991103563678165e-08,1.822020505551258e-08,4.1829821135847816e-08,-1.4966864791109186e-08,1.822020505551258e-08,-1.4966864791109186e-08,1.822020505551258e-08,-1.4966864791109186e-08,6.548190112110945e-08,1.1880742805528424e-07,1.302009184988773e-07,7.5345905469791e-08,1.1880742805528424e-07,1.0995088260130502e-07,1.7120779010220976e-07,1.116914871048073e-07,7.209809435101271e-08,1.2367532056581414e-07,2.5630470375842764e-07,1.8992817044125659e-07,2.3169950479229733e-07,1.3794552104302111e-07,4.110902558566646e-08,-1.765711079530142e-08,1.3794552104302111e-07,1.3278566241528938e-07,-1.765711079530142e-08,1.418038935694957e-07,1.3278566241528938e-07,1.418038935694957e-07,1.3278566241528938e-07,1.418038935694957e-07,1.0030473409618701e-07,1.235197468356449e-07,1.9189487666603618e-07,8.930248922852135e-08,1.235197468356449e-07,1.0193928646394098e-07,1.9966459902030604e-07,1.0290126657895554e-07,2.35003676348432e-08,1.0918113763212152e-07,2.4409632234392774e-07,1.6058000519612417e-07,2.778808320937818e-07,1.1634615280375204e-07,6.027150160612614e-08,-2.1061751066137067e-08,1.1634615280375204e-07,1.0222482387259415e-07,-2.1061751066137067e-08,1.2783080021777375e-07,1.0222482387259415e-07,1.2783080021777375e-07,1.0222482387259415e-07,1.2783080021777375e-07
sub-101,3,5.285428460070472e-08,-3.1484825591379366e-08,-8.059773219730441e-09,2.0968942487316562e-08,-3.1484825591379366e-08,-3.646316203511655e-08,-2.5464540596528014e-08,-5.6863393995609885e-08,-6.746076341993229e-08,-5.992792783984463e-08,-3.872311504270813e-08,-7.357342175875339e-08,1.7808922309815507e-07,4.506265321214836e-08,1.2583987194160145e-07,1.6423372144151495e-07,4.506265321214836e-08,-1.6512568013530744e-08,1.6423372144151495e-07,-1.722192404281459e-08,-1.6512568013530744e-08,-1.722192404281459e-08,-1.6512568013530744e-08,-1.722192404281459e-08,1.4196580392851864e-08,-9.055416111430149e-08,-5.3474188957613773e-08,1.4927558344928358e-08,-9.055416111430149e-08,-2.873844784716738e-08,-8.185352548390658e-08,-6.760508367540344e-08,-3.896112845968504e-08,-3.442864185805312e-08,-6.018469590414523e-08,-5.3654910760521354e-08,8.203448683893175e-08,-2.2961441720287997e-08,1.0608260849499738e-07,2.388153959137383e-07,-2.2961441720287997e-08,-1.5688430352111665e-08,2.388153959137383e-07,-6.282336174104175e-08,-1.5688430352111665e-08,-6.282336174104175e-08,-1.5688430352111665e-08,-6.282336174104175e-08,3.755206991896794e-08,-3.586822256545778e-08,-3.439258025103248e-08,1.0533016890068075e-08,-3.586822256545778e-08,-5.172038808611174e-09,-6.948117400599838e-08,-4.12700527043666e-08,-1.354465377864057e-08,-2.2423870988621887e-08,-5.6208166592389687e-08,-4.9140075235211404e-08,6.13498429766082e-08,-4.046762190037706e-08,8.504955878951219e-08,2.0565736645199717e-07,-4.046762190037706e-08,1.2765708840595903e-08,2.0565736645199717e-07,-3.136918719544344e-08,1.2765708840595903e-08,-3.136918719544344e-08,1.2765708840595903e-08,-3.136918719544344e-08
sub-101,4,-6.728143343795583e-08,-1.2146371576245055e-07,-8.461951287456049e-08,-9.134517830394337e-08,-1.2146371576245055e-07,-9.119270989427682e-08,-9.417427259928195e-08,-6.313932600584287e-08,-9.812736278676689e-08,-5.9359972840666205e-08,-4.7532228371909315e-08,-8.460384005956944e-08,-8.670754308056248e-08,-6.794499982382968e-08,-1.0266421016494677e-07,-4.1811510096631305e-08,-6.794499982382968e-08,-1.0053010036227637e-07,-4.1811510096631305e-08,-1.0637115788893144e-07,-1.0053010036227637e-07,-1.0637115788893144e-07,-1.0053010036227637e-07,-1.0637115788893144e-07,-2.0118884546624088e-07,-4.92653317654096e-07,-1.4438368051351455e-07,-8.599354364258892e-08,-4.92653317654096e-07,-3.244565335167133e-07,-3.1691594490998455e-07,-2.2451165242299928e-07,-2.779165918932764e-07,-2.3650400472597256e-07,-2.781107691140169e-07,-2.407325963880114e-07,-3.4659602867963296e-07,-2.354468383787732e-07,-1.5950879871131274e-07,-2.1867098034267662e-08,-2.354468383787732e-07,-4.498434446857111e-07,-2.1867098034267662e-08,-3.4712696491710974e-07,-4.498434446857111e-07,-3.4712696491710974e-07,-4.498434446857111e-07,-3.4712696491710974e-07,-2.9171542677201997e-07,-5.949749400152694e-07,-1.4323625928767035e-07,-7.176068243057141e-08,-5.949749400152694e-07,-4.1956260133401155e-07,-4.0225983086278064e-07,-2.1745117783362371e-07,-2.981048515790449e-07,-3.136934366410313e-07,-3.857215581860268e-07,-2.9044771904347174e-07,-4.914216181668668e-07,-3.071424954022608e-07,-1.2770568567456255e-07,1.1164159790344757e-09,-3.071424954022608e-07,-5.591084304181978e-07,1.1164159790344757e-09,-4.161675334559714e-07,-5.591084304181978e-07,-4.161675334559714e-07,-5.591084304181978e-07,-4.161675334559714e-07
sub-101,2,2.40749725061727e-07,4.983944671905525e-07,1.826089471943066e-07,1.9434105316826173e-07,4.983944671905525e-07,3.9763677566286036e-07,3.4434967601883677e-07,2.1728326517560572e-07,5.433958508530488e-07,4.2786271174555915e-07,4.0862948436448787e-07,3.6877397126636427e-07,4.3705581939483006e-07,4.2525152608450784e-07,1.4986332831732487e-07,2.40215738468246e-08,4.2525152608450784e-07,4.6889272670264866e-07,2.40215738468246e-08,3.356069294964948e-07,4.6889272670264866e-07,3.356069294964948e-07,4.6889272670264866e-07,3.356069294964948e-07,3.728385187697628e-07,6.410651551286525e-07,1.8474373518580834e-07,7.158393983032498e-08,6.410651551286525e-07,4.866109220627447e-07,4.1957154749495787e-07,2.573956791765608e-07,6.112886218366278e-07,5.461966034528263e-07,4.3661151923962895e-07,4.440438487084628e-07,6.345279888557368e-07,5.658683935657447e-07,1.354234181113431e-07,-8.416599509703044e-08,5.658683935657447e-07,5.742338614081858e-07,-8.416599509703044e-08,4.766896902512195e-07,5.742338614081858e-07,4.766896902512195e-07,5.742338614081858e-07,4.766896902512195e-07,3.3626671378707076e-07,5.392275431336752e-07,1.1771025721426901e-07,-1.4872385986728175e-08,5.392275431336752e-07,4.856352456120282e-07,3.2098885229745577e-07,2.491916358818413e-07,5.751561217856423e-07,5.408420245994095e-07,3.3233463099666844e-07,4.4215068603671033e-07,5.787157748404853e-07,4.4801634226668544e-07,6.991604085393396e-08,-1.6094541410397857e-07,4.4801634226668544e-07,5.63238363592358e-07,-1.6094541410397857e-07,4.6441327739867823e-07,5.63238363592358e-07,4.6441327739867823e-07,5.63238363592358e-07,4.6441327739867823e-07
sub-101,4,-7.038598988486306e-08,-1.4490502196626232e-07,1.2936267353364658e-07,6.135467871346433e-08,-1.4490502196626232e-07,-8.395843968035993e-08,-6.339649305388915e-08,-8.935942751807103e-08,-6.163751081597e-08,-1.0494563708371895e-07,2.536565487380609e-08,-6.849348895304611e-08,9.452960283680117e-08,-1.1049351931386193e-07,2.9905879358376524e-08,1.222872136887955e-07,-1.1049351931386193e-07,-2.0750626190001758e-07,1.222872136887955e-07,-1.4461120429016813e-07,-2.0750626190001758e-07,-1.4461120429016813e-07,-2.0750626190001758e-07,-1.4461120429016813e-07,-5.8110412772953955e-08,-8.394866176907146e-08,1.6104413946983305e-07,8.080776844640705e-08,-8.394866176907146e-08,-8.131948383691058e-08,-4.2722447411523477e-10,-1.0233895421942597e-07,-9.762609647250691e-08,-1.4808147816206316e-07,3.963700297699179e-08,-9.24602953267326e-08,1.1868427946777087e-07,-1.1817875949428706e-07,7.30745083237674e-08,1.1024503486146944e-07,-1.1817875949428706e-07,-1.8402435620391823e-07,1.1024503486146944e-07,-1.597290378356198e-07,-1.8402435620391823e-07,-1.597290378356198e-07,-1.8402435620391823e-07,-1.597290378356198e-07,-1.9453858089708715e-08,-8.463730413329805e-08,1.9855385630069675e-07,1.1150143878383684e-07,-8.463730413329805e-08,-4.497077333325992e-08,3.34286972257296e-08,-6.537860683200292e-08,-6.252547761549475e-08,-1.1182195896916696e-07,5.8480818626641216e-08,-4.902245775843997e-08,1.566220386563598e-07,-1.3299443975214433e-07,5.291565637596152e-08,1.1694535582062361e-07,-1.3299443975214433e-07,-1.3476291794256626e-07,1.1694535582062361e-07,-1.4556564612990413e-07,-1.3476291794256626e-07,-1.4556564612990413e-07,-1.3476291794256626e-07,-1.4556564612990413e-07
sub-101,2,-5.402040499252383e-08,-3.180087887904916e-08,-8.948386045177228e-08,-3.2760827202975795e-08,-3.180087887904916e-08,-3.070504390263506e-08,-2.6939009175010546e-08,-1.7110940574625223e-08,-2.1678976156140655e-08,-3.011499949300829e-08,-2.9601956981359183e-08,2.5263235716092303e-09,-5.621354838384084e-08,3.007255513645559e-08,-2.216199712600134e-08,8.361667510671726e-08,3.007255513645559e-08,-1.0445647902513469e-09,8.361667510671726e-08,-6.175833251657341e-08,-1.0445647902513469e-09,-6.175833251657341e-08,-1.0445647902513469e-09,-6.175833251657341e-08,-7.12532629075641e-08,-5.145494108493706e-08,-5.2085753883043625e-08,-1.0617697770615278e-08,-5.145494108493706e-08,-1.3423850857644786e-08,-4.7705389293924586e-08,1.6638615372716017e-08,8.176445923024405e-10,-1.1463670982757566e-08,-3.657960000985934e-08,2.1285891947775513e-08,-2.2099516801867454e-08,6.36761145061221e-08,-1.9182316342087204e-08,9.195579647893492e-08,6.36761145061221e-08,3.4094254385148954e-08,9.195579647893492e-08,-5.80759693907284e-08,3.4094254385148954e-08,-5.80759693907284e-08,3.4094254385148954e-08,-5.80759693907284e-08,-3.7632032321732825e-08,-1.3844459915352035e-08,-2.15388703979506e-08,8.535063741352191e-08,-1.3844459915352035e-08,6.025630827226074e-08,-1.0315697755250056e-08,4.789402992033616e-08,7.50168027849315e-08,3.029838174473115e-08,-1.6348256401873032e-08,7.335833772993495e-08,-8.077699085826685e-09,9.150168631086258e-08,2.840912845539514e-08,1.4007961526079832e-07,9.150168631086258e-08,8.678447710252949e-08,1.4007961526079832e-07,-2.707571663340612e-08,8.678447710252949e-08,-2.707571663340612e-08,8.678447710252949e-08,-2.707571663340612e-08
sub-101,1,9.244565910120796e-08,-7.663228874362445e-08,8.915151875661656e-08,-4.587452946052166e-09,-7.663228874362445e-08,-8.73693816499018e-08,-1.417868799566072e-07,-9.178879726559288e-08,-9.995916228832105e-08,-4.152274015654071e-09,-1.3555223762167515e-07,-1.2871130190341315e-07,5.055094683687283e-08,-8.730697166208934e-08,5.613653926192175e-08,1.914117596851485e-08,-8.730697166208934e-08,-1.204376965013386e-07,1.914117596851485e-08,-1.2966414562192228e-07,-1.204376965013386e-07,-1.2966414562192228e-07,-1.204376965013386e-07,-1.2966414562192228e-07,-1.9200682662237207e-08,-2.583812835691103e-07,-2.638771415360902e-08,-1.414569368997538e-07,-2.583812835691103e-07,-1.8888903734933e-07,-2.7357027770853865e-07,-1.6027681724840744e-07,-2.449062288178744e-07,-1.4960000424565361e-07,-2.2215975747698362e-07,-2.501278688433473e-07,-2.109177201559578e-07,-2.232860131861059e-07,-5.931878993369415e-08,-1.0593261018831045e-07,-2.232860131861059e-07,-2.6826308498572894e-07,-1.0593261018831045e-07,-2.064176883483703e-07,-2.6826308498572894e-07,-2.064176883483703e-07,-2.6826308498572894e-07,-2.064176883483703e-07,4.138943447063473e-08,-2.683642348649692e-08,5.445418511999889e-08,-7.709997217096424e-08,-2.683642348649692e-08,-9.600568732388647e-09,-1.5981228664025419e-07,-3.001632465453566e-08,-1.3730093662394849e-08,-1.033556919818634e-08,-7.213816865006034e-08,-1.0235058039076637e-07,-4.850799580552712e-08,-6.316953151899222e-08,-5.56567399584628e-08,-1.0117216190334504e-07,-6.316953151899222e-08,-4.6002317373162247e-08,-1.0117216190334504e-07,-1.0387111023908212e-07,-4.6002317373162247e-08,-1.0387111023908212e-07,-4.6002317373162247e-08,-1.0387111023908212e-07
sub-101,3,-1.513135106679655e-07,-1.4848427518617907e-07,-1.576750275547654e-07,-1.6472705899773426e-07,-1.4848427518617907e-07,-1.919782203939004e-07,-2.1569439193095095e-07,-1.9294794149018955e-07,-1.6236678577859748e-07,-1.781192895170514e-07,-1.7334093097988062e-07,-1.744506885053524e-07,-2.916011273022017e-07,-1.5949624622014212e-07,-1.4287277088973196e-07,-1.5665540105762865e-07,-1.5949624622014212e-07,-2.0016137174770283e-07,-1.5665540105762865e-07,-2.430090163166435e-07,-2.0016137174770283e-07,-2.430090163166435e-07,-2.0016137174770283e-07,-2.430090163166435e-07,-2.0181242793045558e-07,-1.5141659599450316e-07,-1.80812409039812e-07,-2.17833591817154e-07,-1.5141659599450316e-07,-1.8861943437197011e-07,-2.496888557841044e-07,-1.8341473196755412e-07,-1.3845546920059705e-07,-1.7713577968258086e-07,-1.776778221340842e-07,-1.6349797582518036e-07,-3.798981712414305e-07,-1.9345028702236017e-07,-1.5855164757712748e-07,-1.621803586435957e-07,-1.9345028702236017e-07,-1.7122585319993717e-07,-1.621803586435957e-07,-2.546553441935448e-07,-1.7122585319993717e-07,-2.546553441935448e-07,-1.7122585319993717e-07,-2.546553441935448e-07,-1.129658121595336e-07,-1.3131179826007981e-08,-5.98031027097728e-08,-1.3889443700110792e-07,-1.3131179826007981e-08,-7.681165580939552e-08,-1.236999687767813e-07,-1.1325448501712849e-07,-3.9631893295055354e-08,-1.0648087133198901e-07,-5.793338399251087e-08,-9.523765026215021e-08,-1.979787186640386e-07,-1.1315828813781467e-07,-1.0761344090918688e-07,-1.4651998178210896e-07,-1.1315828813781467e-07,-8.759797057650507e-08,-1.4651998178210896e-07,-1.8797806988238726e-07,-8.759797057650507e-08,-1.8797806988238726e-07,-8.759797057650507e-08,-1.8797806988238726e-07
sub-105,3,-3.4507394204742626e-08,-1.0549313140153491e-07,-5.74266923500881e-08,2.9096351991899444e-07,-1.0549313140153491e-07,-1.8236258734919238e-08,-3.881487453759505e-08,8.73861823041655e-09,-1.8236258734919238e-08,8.27362860062586e-08,2.8253195747907425e-08,2.2797268333443766e-08,-1.464540087054315e-07,-9.257456167099078e-08,6.504127367175574e-08,-5.426381417267398e-08,-5.319672164381942e-09,-5.337480745073757e-08,-1.425923177887896e-08,1.0108037124761375e-07,4.860127222523672e-08,5.221306777515586e-08,-8.108485037094026e-08,1.0108037124761375e-07,-1.896430182625761e-08,-1.4199774311160656e-07,-5.652883717145268e-08,1.1412217141592931e-07,-1.4199774311160656e-07,-5.7307491489462104e-08,-1.6326221383870703e-10,-2.4157287995841546e-08,-5.7307491489462104e-08,1.9006397259556067e-08,9.845516540094775e-09,-3.90767619156404e-08,-1.358881353619012e-07,-8.47288485806287e-08,-7.132367143396794e-08,-2.524332278239149e-07,-2.683616269523452e-08,-6.716068974412232e-08,-7.147753735226696e-08,6.043002757605072e-08,1.614673981260078e-08,-1.1009180718973332e-08,-1.7766602331314229e-07,6.043002757605072e-08,1.1466936148064314e-08,-8.476564181762588e-08,-7.348177197030573e-08,-3.701086584574712e-08,-8.476564181762588e-08,-1.6372164269372182e-08,4.728235485569064e-08,3.041900720621917e-09,-1.6372164269372182e-08,9.255602945284917e-09,-1.0602999064943828e-10,-2.7089204782560986e-08,-4.932122756350139e-08,-2.3163904646504707e-08,-1.2350136326038516e-07,-2.1596783006547428e-07,2.8272557750650477e-08,-2.6401374121359376e-08,-7.871870997916337e-08,5.4034524661453654e-08,2.5570041878345945e-08,-1.3673650822705401e-08,-1.8084421175774723e-07,5.4034524661453654e-08
sub-105,1,-9.871232755905752e-08,-1.4650561439659722e-07,-5.0326183168400525e-08,6.042643498395365e-08,-1.4650561439659722e-07,-1.1091497832396052e-07,-6.74401595180763e-08,-3.669632647289757e-08,-1.1091497832396052e-07,-3.378117812441502e-08,-6.602782475235252e-08,-3.383218655317558e-08,-1.6008683602742497e-08,-1.1046223582749855e-07,2.952730693975904e-07,4.919279368790612e-07,4.5145675131503604e-08,-2.550282886953979e-08,1.6108997957108353e-07,3.9190457162090844e-08,-2.0189757414538662e-08,4.457353123948518e-08,1.9254650249814408e-07,3.9190457162090844e-08,-6.083442595823954e-08,-9.824105477642298e-08,-1.7827147857570046e-08,1.64120334606908e-07,-9.824105477642298e-08,-7.98297666864682e-08,-7.701359169407291e-08,-2.920978502063739e-08,-7.98297666864682e-08,1.1705634033055267e-08,-5.0498891954757244e-08,-2.4890345287833827e-08,-2.694561843161318e-08,-7.181600325692952e-08,4.39797697129549e-07,1.0951620387607724e-06,1.014901474972869e-08,-1.4841817801726916e-08,2.5046613106150024e-07,5.5853949620972114e-08,4.4965425510077345e-09,9.930045445708955e-08,4.5347630218024653e-07,5.5853949620972114e-08,-8.048199576783178e-08,-1.1600163528496704e-07,-4.3078980653952354e-08,3.23426412668635e-08,-1.1600163528496704e-07,-1.05751043243669e-07,-7.921272477097826e-08,-4.0355641314834956e-08,-1.05751043243669e-07,-2.3355739496867896e-08,-7.427070134465426e-08,-4.149645801948601e-08,-5.949613477381283e-08,-1.2909339069586683e-07,3.28263999519687e-07,9.988182907676993e-07,-9.214281634505786e-09,-7.668152035857123e-08,1.5565433834655576e-07,3.4354224975811935e-08,-2.8185853246542857e-08,7.579232282739147e-08,3.42830175551885e-07,3.4354224975811935e-08
sub-105,4,-1.119111185371458e-07,-1.03979258759239e-07,-8.037733328858457e-08,5.8426073773972825e-08,-1.03979258759239e-07,-9.079380971519589e-08,-1.3498256592205605e-07,-8.15658905350204e-08,-9.079380971519589e-08,-1.0419616554065943e-07,-1.1482494266179805e-07,-7.743489439853165e-08,-2.7194178842196986e-07,-1.3992204516086244e-07,1.1595494805473328e-07,4.3472203237525643e-07,-1.8274525036377783e-07,-9.570250489904562e-08,-3.806812166893127e-08,-1.3696931805079494e-08,-4.57256572434127e-08,-1.1466052193967747e-08,2.0105919090624388e-08,-1.3696931805079494e-08,-1.0496912498973549e-07,-9.158553069493582e-08,-1.149023339798189e-08,1.9440864131853756e-07,-9.158553069493582e-08,-7.225771402878676e-08,-1.6913668867623666e-07,-8.411186345299564e-08,-7.225771402878676e-08,-7.015722592778955e-08,-1.1590755524291168e-07,-7.047491438233371e-08,-2.78657808676156e-07,-1.3224316360264683e-07,1.7894080049962533e-07,4.552924030180022e-07,-2.2675130335761395e-07,-8.771737165467092e-08,9.215537338054976e-09,-3.708527500084188e-08,-4.706623539156712e-08,-7.593097702411791e-09,1.369604709883791e-07,-3.708527500084188e-08,-7.707876518969884e-08,-5.378358482959297e-08,-6.265404269343086e-08,1.3328565827357192e-07,-5.378358482959297e-08,-4.968487114310864e-08,-1.2213539890774498e-07,-5.110315503978292e-08,-4.968487114310864e-08,-6.403446066775361e-08,-1.0152490211961945e-07,-5.598232875764898e-08,-1.6077685828329448e-07,-1.1552994649356847e-07,1.1700203091031082e-07,2.1627690286739637e-07,-1.202522388912802e-07,-7.454316790543201e-08,-3.0940437261251366e-08,-3.956226734651759e-08,-2.980729689349577e-08,-4.1051657493019004e-08,1.2250086588219907e-09,-3.956226734651759e-08
sub-105,2,1.0499630784104553e-07,1.642082547365383e-07,2.2531362632916145e-07,4.331556803542738e-07,1.642082547365383e-07,1.287640064331061e-07,6.919856283731427e-08,-4.631330831854515e-09,1.287640064331061e-07,1.230103654358473e-07,2.3184152555502505e-07,5.2012129901726236e-08,4.6842071255538084e-08,2.060070224631483e-07,7.292627087342472e-07,5.942773162344054e-07,9.620695707912187e-09,3.156035727870969e-08,3.757193597657886e-07,-1.2301561251192094e-08,5.9658142444149e-08,4.5717040834536006e-08,6.389187986994664e-07,-1.2301561251192094e-08,2.0645591239390982e-07,3.0536467840594663e-07,3.0128031746549055e-07,5.06386741571426e-07,3.0536467840594663e-07,2.631220936549453e-07,1.4074564583438756e-07,1.0661249123842752e-07,2.631220936549453e-07,2.41143045530553e-07,3.093546988239009e-07,1.5507067164289898e-07,1.4908239047582237e-07,3.531739594217276e-07,8.876486463786169e-07,4.180305321552251e-07,6.470400489405694e-08,1.2408021109241726e-07,3.928127494811929e-07,1.9407111012912348e-08,1.1880770299551946e-07,8.264679208081213e-08,7.607067023373812e-07,1.9407111012912348e-08,1.0031766205442657e-07,1.6609892579806995e-07,1.2645541848327958e-07,1.2043441901991495e-07,1.6609892579806995e-07,1.8619910330554558e-07,6.015252902233531e-08,5.898730813320667e-08,1.8619910330554558e-07,1.597183329631424e-07,1.5088639822711042e-07,1.0285075569701647e-07,7.244352599410115e-08,1.9139705411468205e-07,5.953227289084688e-07,-1.2406735042079125e-07,3.964321326098525e-08,5.5303542986437666e-08,2.067892063814824e-07,-5.2493074552366165e-09,4.902989291576537e-08,4.624851664737227e-08,4.169930604773627e-07,-5.2493074552366165e-09
sub-105,3,1.4675355787648907e-07,1.4058490309639117e-08,5.13612470879981e-08,-9.817557044328251e-08,1.4058490309639117e-08,-1.3058637842180961e-10,8.873918089186902e-08,3.995832296209975e-08,-1.3058637842180961e-10,1.5660018087211513e-07,4.402685900545041e-08,1.3025909523856704e-07,1.2493738702495216e-07,1.622738777487103e-07,-1.941769466926599e-07,3.557416389117937e-07,8.772490465083433e-08,9.043531819531311e-08,-1.4088492302439531e-08,6.135404975104802e-09,8.735183449997325e-08,8.951182761486549e-09,-4.555151678928572e-08,6.135404975104802e-09,1.9645463819028823e-07,-3.2696373489051334e-08,7.938679043340333e-08,-5.693643367256084e-08,-3.2696373489051334e-08,-9.525042561807674e-08,8.782889744721694e-08,1.1522094581682842e-07,-9.525042561807674e-08,1.9331889674951574e-07,4.781372430081751e-08,1.310829447814523e-07,1.9209552534142553e-07,2.2306106913022637e-07,-1.5617561004484766e-07,4.5300025158027443e-07,1.3134553659810024e-07,8.589914391670387e-08,-2.0375977131978277e-08,2.918418671890193e-08,8.628868735657198e-08,2.3649533580738474e-08,5.372757149899521e-09,2.918418671890193e-08,1.60742707400226e-07,-1.607917962211343e-09,7.232998527885171e-08,-2.2165084492878447e-08,-1.607917962211343e-09,-8.475092017680535e-09,6.146864749034876e-08,1.680261091553519e-07,-8.475092017680535e-09,1.6501907684459269e-07,8.254417730314266e-08,1.157102313288153e-07,2.264692111481773e-07,1.7637911378525884e-07,-1.382028575632689e-07,3.2954518635832664e-07,1.9805528454860588e-07,1.5952802601812247e-07,7.521183737571213e-08,3.536353378641767e-08,1.0438134545595043e-07,2.557946692534041e-08,-2.7030154246889726e-08,3.536353378641767e-08
sub-105,1,-1.518076465308976e-08,1.7115983450746267e-08,2.23237699512727e-09,7.483978330158243e-09,1.7115983450746267e-08,-1.7219433580043304e-08,-8.660321116681665e-08,-1.3162790554796157e-07,-1.7219433580043304e-08,-3.7746091540644506e-08,-5.317160641095904e-08,-3.0656316901549915e-08,-2.035154250575843e-07,-4.079895779771475e-08,2.7484565289038497e-08,3.256544487430223e-07,-1.1839290304032389e-07,-1.9920424607110458e-07,-7.985191219945101e-09,1.1574041387040234e-08,-4.414361775323105e-08,-3.46399137945293e-08,1.3026844437882747e-07,1.1574041387040234e-08,-5.894460538405317e-08,-4.137055790529511e-08,-1.7364957788663205e-08,-9.541518948016042e-08,-4.137055790529511e-08,-7.849864232886195e-08,-1.0178917168615082e-07,-1.9055957261349417e-07,-7.849864232886195e-08,-6.309118594644338e-08,-1.0501135832963804e-07,-4.5917485585767215e-08,-2.944712864265138e-07,-8.020933482877863e-08,4.3217357390399187e-08,4.1836368303531446e-07,-2.0390076820110711e-07,-2.3525300549829232e-07,2.23658462271985e-08,-2.3552415148413217e-08,-4.6911364027179487e-08,-6.482648604945791e-08,1.5537336964510012e-07,-2.3552415148413217e-08,-3.447991371318658e-08,-1.8459106515905882e-08,-1.839118905315162e-09,-5.6545293261132084e-08,-1.8459106515905882e-08,-5.979428573091999e-08,-7.117708401110671e-08,-1.488440453705879e-07,-5.979428573091999e-08,-7.003958186725664e-08,-8.941770831013608e-08,-4.49990068622801e-08,-1.8628811974053572e-07,-5.962198338305266e-08,5.4079301501680585e-08,3.1150704193826303e-07,-1.1849697864890276e-07,-2.1034762606022427e-07,2.478231865927482e-08,-7.25797204085194e-08,-7.667512100720566e-08,-9.933817828443472e-08,1.0614066988283816e-07,-7.25797204085194e-08
sub-105,4,-9.536274344305345e-09,-1.2867958346266104e-08,-9.358805044639759e-08,7.074770651152984e-08,-1.2867958346266104e-08,-4.749174809938336e-09,2.8676862787842055e-08,2.828903137137458e-09,-4.749174809938336e-09,-2.4722219578277746e-08,-1.9614916524241542e-08,-2.813408414910457e-08,5.159783771718943e-08,1.5729566195638597e-08,5.3477931308449654e-08,3.0463608773630907e-07,-4.8831375573701625e-09,-1.9616024641070692e-08,1.7451062405463245e-08,2.254386977016549e-08,-6.32899916733045e-09,6.071233491204759e-09,2.1538889494998305e-08,2.254386977016549e-08,5.215375585843873e-09,5.944139073732085e-09,-5.437944823913035e-08,1.5725045293957805e-07,5.944139073732085e-09,-2.6980251015734982e-09,6.942123061838974e-08,2.2904406663090245e-08,-2.6980251015734982e-09,-9.139789328779495e-09,-4.4387959752051983e-08,-2.8396282770175876e-08,1.2935293343963125e-08,3.3178659926428855e-08,1.6368992973402095e-07,4.464691207916717e-07,-3.139621617271952e-08,-9.067453750981535e-09,1.9835579314047492e-08,7.37195135550334e-08,5.263207987818401e-09,8.276919920385309e-08,6.280243814322103e-08,7.37195135550334e-08,-9.284159330475139e-08,-1.1648476626518316e-07,-1.91589298263443e-07,3.7933760628027044e-08,-1.1648476626518316e-07,-8.780516794311737e-08,-8.620590043804832e-09,-2.8205649342551878e-08,-8.780516794311737e-08,-5.427066941512362e-08,-1.1153835443662904e-07,-6.862324925975039e-08,-1.1102003791509956e-07,-8.258511297220632e-08,1.2728084248016677e-07,4.0274663509671713e-07,-9.36159626520034e-08,-8.436060150759551e-08,-6.077826675255957e-08,4.6780367855805006e-08,-4.549939717342596e-08,6.367639792345208e-08,-4.577222527549051e-08,4.6780367855805006e-08
sub-105,2,2.9432132311552453e-07,3.660460557478116e-07,3.2357606297775115e-07,4.848868739039344e-07,3.660460557478116e-07,2.7598845761945773e-07,1.618479674646903e-09,1.8080810546023741e-07,2.7598845761945773e-07,2.9004590930039194e-07,2.2267312611266296e-07,2.2141700019563685e-07,1.976777479813077e-07,2.884691117230494e-07,1.402501336282088e-07,-7.519721600945877e-08,1.1494723563567863e-07,2.186999699640955e-07,1.7268269338105417e-07,1.0558311252702432e-07,1.816555905928937e-07,1.2819609423177142e-07,3.6427210225219254e-07,1.0558311252702432e-07,4.193594691233721e-07,3.9974014873302804e-07,4.1060444426777947e-07,6.563276745492958e-07,3.9974014873302804e-07,3.081836855451541e-07,4.499373141611891e-08,2.544599482633793e-07,3.081836855451541e-07,3.115054487144894e-07,2.1901021608827718e-07,2.6959252020588904e-07,2.7640282473086125e-07,2.568180171434189e-07,1.9876749536396817e-07,-8.042068933748297e-08,2.1100520741264368e-07,3.004391406599074e-07,2.729754541338189e-07,1.204487506049992e-07,2.131393809446986e-07,1.4240819634560475e-07,4.275469375263201e-07,1.204487506049992e-07,3.487679368525804e-07,2.785738463605156e-07,3.5886717856922146e-07,5.780261233973498e-07,2.785738463605156e-07,2.2374970420196951e-07,5.365008493047564e-08,1.9436447285712725e-07,2.2374970420196951e-07,2.580588357761281e-07,1.4945136649069517e-07,2.1389511293707978e-07,2.133729890223841e-07,1.4173818451831185e-07,2.116877049485072e-07,4.21676817701394e-09,1.8754380025185709e-07,2.221130311937143e-07,2.3342541710995149e-07,1.2777212329778024e-07,1.549247739112424e-07,1.4843532262100035e-07,3.7349507183384503e-07,1.2777212329778024e-07
sub-105,3,-1.5407729849231483e-07,-1.668343979934721e-07,-1.5902380497086311e-07,-6.295703424700409e-08,-1.668343979934721e-07,-1.2182387978782953e-07,-1.712690340251093e-07,-7.924755093948542e-08,-1.2182387978782953e-07,-6.221688667380103e-08,-7.108658967817501e-08,-8.17160727327262e-08,-9.618154548118318e-08,-1.0793626735292534e-07,-1.9035736265025304e-09,2.610996732463721e-08,-8.957903577205832e-08,-1.339380225777591e-07,-7.89930606469319e-08,-7.371147897731787e-08,-8.856496298705866e-08,-1.0965539305063053e-07,-1.4480412023213358e-07,-7.371147897731787e-08,-2.9876867446127334e-08,-1.2355015789057078e-08,-6.622789759648703e-08,-1.309700303374457e-07,-1.2355015789057078e-08,9.08729289661013e-09,-1.405534469868194e-07,-1.8866238382663166e-08,9.08729289661013e-09,-1.5255549808583048e-08,-1.9925083029194054e-08,-2.927319314486232e-08,1.0223991969451937e-09,6.166108543909431e-08,-2.1130820212444824e-08,-6.910908439531581e-08,-3.801664500408269e-08,-1.7700274985372295e-08,-9.225857587212765e-08,-1.0125234314819352e-07,-1.575358845655549e-08,-9.670798227863001e-08,-1.1915247683163266e-07,-1.0125234314819352e-07,2.927387039149117e-08,6.817763714281618e-08,-4.917335319741014e-08,-1.1344790195340316e-07,6.817763714281618e-08,9.156200781259995e-08,-8.622675757731223e-08,4.326527087491155e-08,9.156200781259995e-08,-7.609715031311448e-09,3.3164021182219864e-08,2.564090964025459e-08,1.1320029201443215e-07,1.7373675164272758e-07,-6.254551596824127e-08,-9.214193011153754e-08,7.026198818663911e-08,1.0396097869531908e-07,-4.1312844729084507e-08,-5.266238313762227e-08,5.262626749036667e-08,-3.440826916105021e-08,-7.391831122758603e-08,-5.266238313762227e-08
sub-105,1,-1.1253643819288835e-07,9.977441580193566e-09,-1.9080678891545086e-07,-3.3979026164609994e-07,9.977441580193566e-09,3.216783772932154e-08,-1.1677842979830042e-07,-5.186059199438247e-08,3.216783772932154e-08,-1.0352978271491897e-08,-1.8271626071622925e-08,4.101449770282488e-08,3.2643592388293914e-09,1.2462901768387662e-07,-1.2000509933237174e-07,1.650230379990558e-08,-1.0260663278114032e-07,4.2662702465003705e-08,-1.0231120870637469e-07,5.586189993160354e-09,5.1778442630896024e-08,-3.8180506400564995e-08,-4.4594433863221525e-08,5.586189993160354e-09,-2.2559940743720318e-07,-8.57224451502419e-08,-3.238932423017745e-07,-5.752769010128912e-07,-8.57224451502419e-08,-4.021879318872539e-08,-1.8918614021663647e-07,-1.1473794893497605e-07,-4.021879318872539e-08,-4.8685180948548006e-08,-1.1415968424963305e-07,-3.6392303005530084e-09,-2.4588229427202405e-08,7.488561462000299e-08,-3.213270533187185e-07,2.5525617971057e-08,-1.0420702642587654e-07,1.129963919162763e-08,-1.8978178895772842e-07,4.9137331081447895e-09,6.8757603311978715e-09,-4.877882474440807e-08,-2.2976265633602963e-07,4.9137331081447895e-09,-1.733978246215635e-07,-7.978452927333957e-08,-2.7140841736035375e-07,-5.492513999947437e-07,-7.978452927333957e-08,-3.83504657799703e-08,-1.5051747540060503e-07,-8.368180474286467e-08,-3.83504657799703e-08,-1.816373599211653e-10,-1.0353965176682024e-07,1.505159280347455e-08,-8.290111076468939e-08,3.150433131313368e-08,-3.651077141692062e-07,5.166563443684618e-08,-1.4567692696493822e-07,-2.2357862150030506e-10,-1.8313595908450233e-07,3.510374615763294e-08,2.0780619210360198e-09,-9.993105314683936e-09,-2.1956223303040813e-07,3.510374615763294e-08
sub-105,4,1.896031163645535e-07,1.1435355678986267e-07,2.198063519464183e-07,2.5227309489763826e-07,1.1435355678986267e-07,1.0853914037630628e-07,2.082495613781331e-07,1.3617238699966803e-07,1.0853914037630628e-07,1.175564325798751e-07,3.943082333722666e-08,1.2835692220223608e-07,8.305195392307085e-08,4.807297288165398e-08,3.258289502223951e-07,2.2130605900251514e-07,1.278293429573747e-07,1.4607735875725486e-07,1.5544533264664807e-07,9.439699354734956e-08,8.884340546156027e-08,1.0032203892412058e-08,2.069124525596348e-07,9.439699354734956e-08,1.4204843249844274e-07,-3.0566214754364625e-09,2.13875928331009e-07,2.8053587642099064e-07,-3.0566214754364625e-09,2.4696851391204014e-08,8.862376267698432e-08,6.020967556854378e-08,2.4696851391204014e-08,1.2340122082536374e-07,-8.147219784665799e-08,1.0745871486412736e-07,5.061172107613128e-08,3.30752266606311e-08,4.3091299035350013e-07,3.7187193678504294e-07,9.943636644011363e-08,1.742133857124098e-07,1.8293955794410126e-07,9.45394199889484e-08,8.447635822935814e-08,3.10442596526366e-08,2.899497801707801e-07,9.45394199889484e-08,1.3997111468761104e-07,1.0251436897202183e-08,2.0070513020040396e-07,3.2931112970918447e-07,1.0251436897202183e-08,4.885335860512951e-09,7.832177897308301e-08,5.764765526514282e-08,4.885335860512951e-09,1.1076080839390472e-07,-6.471824336781659e-08,7.091738648740062e-08,8.453522856118358e-08,4.808353068099303e-08,3.596990648089748e-07,3.00656456644049e-07,1.1148673549010237e-07,1.420094298633466e-07,1.0991640144364402e-07,4.438074401557105e-08,6.975639193573992e-08,-7.544573650879933e-09,2.7248033701477037e-07,4.438074401557105e-08
sub-105,2,-6.987618571967436e-08,4.7314244090835596e-08,-8.434514005083673e-08,3.6224529340736977e-08,4.7314244090835596e-08,2.4592369829382572e-08,-2.1845762656029525e-08,-4.5065180824942525e-08,2.4592369829382572e-08,-6.056813755614529e-09,1.5904678073034707e-08,-3.389757330459707e-08,3.826556346676763e-09,7.59839119372837e-09,1.9132513105985928e-08,-2.343286047761803e-07,-7.444575998856345e-08,-8.894199776976768e-08,-5.990649083049374e-08,-2.0438537396735638e-08,-3.0560925994668875e-08,-2.9724013415846127e-08,-1.3593034486215956e-07,-2.0438537396735638e-08,-9.133888915641593e-08,1.6142135412179156e-08,-1.1163300711748602e-08,-9.925115408855176e-08,1.6142135412179156e-08,2.984799845524912e-09,1.1638781612639486e-07,-1.8440384567858016e-08,2.984799845524912e-09,-3.4259658705485404e-08,6.791833539759742e-08,-2.4508855537128505e-08,3.689953721349732e-08,1.6051686059943578e-08,1.2063641535515757e-07,-3.5938858277660346e-07,-3.879680257526837e-08,-8.070362446532614e-08,2.437979654484673e-08,-1.9217820355907286e-08,-4.0845684998677e-08,-1.9926151645142255e-08,-1.3377461511921766e-07,-1.9217820355907286e-08,-1.1542582567336779e-07,-3.556245973101664e-08,-6.772643131732493e-08,-1.5398534524404781e-07,-3.556245973101664e-08,-1.9131103401228195e-08,7.584605100520687e-08,-3.705776045307088e-08,-1.9131103401228195e-08,-3.9783577346638534e-08,3.6868830597596855e-08,-2.2532710849159418e-08,3.474277794320533e-08,-1.2376158009402539e-08,1.2167709479112934e-07,-3.3525674168888457e-07,-5.000816030906606e-08,-7.507197403578236e-08,-4.685822434540959e-09,-4.750478685889727e-08,-5.2538256269803405e-08,-6.656873808714061e-08,-1.9114821529029704e-07,-4.750478685889727e-08
sub-105,3,-1.1040258938203663e-07,-2.0985019207090618e-07,8.348708343142593e-08,2.8151963339335944e-07,-2.0985019207090618e-07,-1.8107775581225813e-07,9.529719874070225e-08,-1.3544079064054898e-07,-1.8107775581225813e-07,-1.1985024542315563e-07,1.262559735228153e-07,-1.247342235091182e-07,-8.842373175806364e-09,-1.792395215374059e-07,-2.098693479193068e-08,3.9960447049452157e-07,-2.8568444918561912e-08,-1.5055813466384198e-07,1.5275072082595194e-07,-6.81876680833474e-09,-1.0937024954243992e-07,-3.4580951544585816e-08,1.753397392482892e-07,-6.81876680833474e-09,-1.0630476394362029e-08,-9.46479127082707e-08,-2.3678990741739324e-08,-5.448316323531941e-08,-9.46479127082707e-08,-8.596596432026355e-08,1.446230997014805e-07,-8.013652043509465e-08,-8.596596432026355e-08,-4.363802775403759e-08,1.2543886982141588e-07,-8.13664341427516e-08,-1.3272692524507461e-08,-5.0420851575256445e-08,-3.754117217518598e-08,3.248053166524235e-07,-1.8015845342008916e-08,-6.401092676199035e-08,1.1147099903522448e-07,7.965015086915123e-09,-5.8635037517920066e-08,-8.608581238993809e-09,1.2353057769248207e-07,7.965015086915123e-09,-1.3480488053933297e-07,-2.180296746273234e-07,-1.225539409451035e-07,-1.9041777785658577e-07,-2.180296746273234e-07,-1.6863228889126552e-07,3.241280196154062e-08,-1.3085598585232083e-07,-1.6863228889126552e-07,-1.4024652769590594e-07,1.120796753246541e-09,-1.2885057733323448e-07,-2.1397554846239384e-07,-1.7840856431330994e-07,-1.3049504853982227e-07,2.2644114884837535e-07,-1.5223949562498335e-07,-1.7845533725933285e-07,5.297247307411854e-08,-1.288831899351624e-08,-1.2537040824077916e-07,-3.305262542056591e-08,7.536485368740667e-08,-1.288831899351624e-08
sub-105,1,5.818756735990742e-08,1.233895311156693e-07,-7.252458624537066e-08,1.187148951445672e-07,1.233895311156693e-07,1.151999718269161e-07,-1.0832204693855257e-07,4.765100876302883e-08,1.151999718269161e-07,1.015869572709914e-07,-4.774627409134309e-09,8.305039312175992e-08,-7.024902544618744e-08,2.603900696643296e-08,-1.5518940852974698e-07,4.797649020942517e-07,-3.4548347215467765e-08,1.2758214745812349e-08,-8.028002490258233e-08,8.686944227757488e-08,1.1801462368249591e-07,1.076099159518414e-07,2.0017037076235754e-07,8.686944227757488e-08,4.76293970681689e-08,6.862617717159339e-08,-1.3108821827865661e-08,1.5681717955797677e-07,6.862617717159339e-08,5.6026623549064066e-08,-1.4107739007971858e-07,3.8180512071775295e-08,5.6026623549064066e-08,3.3325525448872955e-08,-2.292716493945155e-08,4.585809648330677e-08,-4.131176347824185e-08,-5.96629016303783e-09,-1.0204179954264996e-07,4.2290992668620793e-07,1.7127691604640831e-09,5.335107632770539e-09,-6.080557771910295e-08,-5.729827941894524e-09,6.760242178413091e-08,-1.666704644744428e-08,1.4833058734195497e-07,-5.729827941894524e-09,4.206861211565091e-08,6.958414607223538e-08,4.920512275259519e-08,1.7108039555845043e-07,6.958414607223538e-08,6.092118466626174e-08,-1.0513399086268286e-07,3.529078473558828e-08,6.092118466626174e-08,1.589531179907063e-08,1.0866968889664397e-08,5.6170534440541986e-08,-3.933591781455474e-08,-1.2507095255690929e-08,-3.398448891879129e-08,4.3997266425829504e-07,1.0995340843128935e-08,2.157811095080801e-08,-2.2312157424521487e-08,-9.101103749634587e-09,6.009016046687206e-08,-4.5339100810518044e-08,1.9690920308478466e-07,-9.101103749634587e-09
sub-105,4,-2.3932735549421937e-08,5.511416545881502e-09,3.827826614004208e-09,-5.848673584338317e-08,5.511416545881502e-09,-3.7848172398934305e-08,3.7508406308015026e-08,1.1387202878735444e-08,-3.7848172398934305e-08,-5.9753459069619e-08,-4.735166638476582e-08,-7.72079949639322e-08,-3.3565646010297417e-08,-5.258037806666719e-08,-6.59928291388967e-08,-1.569609026287599e-07,-5.2768245051122947e-08,-3.773125453229766e-08,-5.2596603656602894e-08,3.083036888100436e-08,-4.770457955548228e-08,4.590035752093165e-08,-9.903694479758716e-08,3.083036888100436e-08,-9.510007281252298e-09,-2.373162655669841e-08,6.628333982067413e-09,-1.213321808687129e-07,-2.373162655669841e-08,-6.986731028826757e-08,3.625678157707345e-08,-1.4162179929336069e-08,-6.986731028826757e-08,-1.4217073435181615e-08,-5.543375367741181e-08,-8.520805530972448e-08,6.93152770471653e-08,-2.9175615177260033e-08,-1.3421385885610846e-07,-3.0093875269565404e-07,-3.922692362558718e-09,-1.5840653688263703e-08,-6.450883148887693e-08,7.157265950404658e-08,-6.107906229432672e-08,7.835910517723649e-08,-2.0243360735144575e-07,7.157265950404658e-08,-3.5571999033053588e-09,-2.3509705243529766e-08,-1.2786230170327173e-09,-1.035705402250717e-07,-2.3509705243529766e-08,-2.1045095266750658e-08,4.4950414015879236e-08,7.366053182017866e-09,-2.1045095266750658e-08,-1.951000721370057e-08,-1.7259392576763797e-08,-1.4966602896017385e-08,1.6779939352115317e-07,3.992626409863303e-09,-9.272845020170348e-08,-2.344939589356964e-07,9.53412646871089e-08,5.5433831526291297e-08,-3.698362384644873e-08,5.044453095798982e-08,-1.2827184233676623e-08,3.439262411897813e-08,-1.9555168407628788e-07,5.044453095798982e-08
sub-105,2,1.343947217943999e-07,1.3042396634673983e-07,-1.5348634086573828e-08,-1.4057797691605e-07,1.3042396634673983e-07,8.010517772366768e-08,6.355570588360916e-08,2.4377489224885362e-08,8.010517772366768e-08,1.4518688978506008e-07,-5.4658925347494994e-08,5.955593542065092e-08,-1.1497973660542186e-08,7.598017102257197e-08,-8.512706045007155e-08,-1.8503426117229233e-07,-3.46612716364932e-08,6.618010881876375e-08,-4.40339933652067e-08,8.559342734205627e-08,1.160713762444616e-07,8.62239937849369e-08,-1.0622261927319194e-07,8.559342734205627e-08,2.567211692310657e-08,3.649652310875392e-08,-1.8135154099508628e-07,-3.232795444918026e-07,3.649652310875392e-08,-3.647383481923267e-08,-3.1201939888073666e-08,-1.699454594068972e-08,-3.647383481923267e-08,7.851441260933295e-08,-1.5765490536484485e-07,-1.9819276801366406e-08,-1.690566105289535e-07,-6.884274391523666e-08,-1.7681641709828358e-07,-2.7190621812896404e-07,-1.3789923952891742e-07,-7.604361137484921e-08,-1.1098684288453886e-07,7.651565896632434e-08,4.570360352260193e-08,7.84903403644376e-08,-1.968433750768124e-07,7.651565896632434e-08,-6.386708137495968e-08,-7.969964962535244e-08,-2.4520300856010716e-07,-4.3503510964214653e-07,-7.969964962535244e-08,-1.1643189453518283e-07,-8.702911778738411e-08,-9.815933672113189e-08,-1.1643189453518283e-07,-1.358652670001361e-09,-1.7206282817109e-07,-7.979161908758487e-08,-2.426348670592055e-07,-1.4026796789813673e-07,-2.3756183500022518e-07,-3.0845495739381417e-07,-2.0515467099764648e-07,-1.5353003369851005e-07,-1.7332526164675925e-07,1.3387617152630156e-08,-1.8565833713116213e-08,2.093830004261777e-08,-3.1897595434002195e-07,1.3387617152630156e-08
sub-105,3,-4.92447843987901e-08,-1.0067423797547784e-09,1.7488221139573482e-08,4.9277207633385974e-08,-1.0067423797547784e-09,8.832380784336235e-09,-3.2202579632131196e-09,-3.733561995341959e-08,8.832380784336235e-09,-7.834608728116337e-09,7.356924111905145e-09,-6.389346970401498e-09,1.6401177561462514e-07,2.8374897074297126e-08,2.0745477354137766e-07,-3.347472785046893e-07,1.4238859252983313e-07,3.4818268132860864e-08,-1.0413330450393585e-08,-1.318707842687797e-07,-8.42766018997163e-09,-5.939153903165015e-08,-1.2753987122026033e-07,-1.318707842687797e-07,-5.6714286759066345e-08,3.7591664276761413e-08,3.375030469744616e-08,1.0908654053434323e-07,3.7591664276761413e-08,5.21173526104888e-08,9.554265984329617e-09,-2.7725091679611314e-08,5.21173526104888e-08,4.4233857717606295e-08,4.299857041146039e-08,1.1508969372884084e-08,2.100815711966155e-07,5.934138798039707e-08,3.889893149087253e-07,-6.697325118356783e-08,1.7895917109670567e-07,6.365955908718491e-08,9.632930079107372e-08,-1.2030520415568158e-07,-3.398528113166497e-09,-4.71503689654482e-08,3.459520926383894e-08,-1.2030520415568158e-07,-8.183694989050856e-09,5.139555298797981e-08,1.4273446763700603e-08,3.845666233430798e-08,5.139555298797981e-08,9.011293868690069e-08,7.343122127216757e-08,1.071769034448625e-08,9.011293868690069e-08,5.687598299607683e-08,9.996518877721454e-08,4.1432733218188853e-08,1.9472004814271346e-07,9.190473947567987e-08,4.959425317258988e-07,5.9550515470033845e-08,1.764556586180126e-07,9.121069033106559e-08,1.5615573530932368e-07,-8.963681923551313e-08,1.9869735569153406e-08,-3.82479872444206e-08,3.366438805267588e-08,-8.963681923551313e-08
sub-105,1,3.010775464029908e-08,3.978896085449574e-09,2.1089701589839744e-07,8.813842806768561e-07,3.978896085449574e-09,-5.3200602759628345e-09,-1.7115514653146156e-09,-6.818899002662086e-12,-5.3200602759628345e-09,5.692472314411087e-08,1.763118312078022e-07,5.462882881395976e-08,6.819390403056553e-08,2.5264201593514717e-08,2.2647353828241506e-07,9.733814089976532e-07,4.4065535035893855e-08,3.461875952522568e-08,3.154230203858047e-07,6.499048339622365e-08,6.041758483330837e-08,-7.649711135475636e-12,7.126814813495417e-07,6.499048339622365e-08,1.20083152733895e-07,5.755679256755202e-08,1.7336778875691467e-07,7.396556202067825e-07,5.755679256755202e-08,1.941812926660309e-08,4.422874786657967e-08,7.409983228052141e-08,1.941812926660309e-08,5.6023980790465354e-08,1.6297853713698337e-07,8.162281032815745e-08,1.0563806860032567e-07,6.407740896437795e-08,-1.6655043867798626e-07,2.0100886419181432e-07,8.545460608067315e-08,7.458540729563411e-08,1.8208574494756375e-07,1.2934313153480434e-07,6.106008217927225e-08,7.494595918079515e-09,5.566469482141405e-07,1.2934313153480434e-07,5.561363907928932e-08,-6.533154679410613e-08,5.081326918080199e-08,4.5023615923927445e-07,-6.533154679410613e-08,-6.51648929849196e-08,7.291376697723205e-09,3.1966680229783086e-08,-6.51648929849196e-08,6.122746880758955e-10,6.396245893157388e-08,2.9504464465623252e-08,3.1763566625350144e-08,-5.252816168856453e-08,-2.499459724992902e-07,-9.763205723701927e-08,5.1606972239778124e-08,1.6191320839890268e-08,5.3252534358326896e-08,1.1420659695767488e-07,1.2234004170110745e-08,1.938296477976792e-08,2.817799687311785e-07,1.1420659695767488e-07
sub-105,4,1.5995898142547658e-07,2.1571784152965452e-07,8.452987611374471e-08,-1.202816332145113e-07,2.1571784152965452e-07,2.009370776409151e-07,2.2141473879550103e-07,1.4788553107978325e-07,2.009370776409151e-07,-5.578216486767475e-09,1.800268889305815e-07,7.426787221094587e-08,3.3083500715323637e-07,2.242531152276555e-07,-1.7632279731225233e-07,-1.816347081461515e-07,2.888778511967403e-07,1.8752810464613054e-07,4.347515452641452e-08,-1.3918800720043885e-07,5.8783802526386496e-08,-4.195970527364982e-08,-8.426758058869071e-08,-1.3918800720043885e-07,1.3121681590444687e-07,1.794048899148809e-07,2.199215468308833e-07,-1.036642436745859e-07,1.794048899148809e-07,1.5212583457416478e-07,1.7369246947017102e-07,1.0304755209097919e-07,1.5212583457416478e-07,-2.5563584675673804e-08,2.1286722886699074e-07,6.323002942742872e-08,4.122442630372312e-07,1.6735986798434538e-07,-1.1404106641721458e-07,-1.1798788503639847e-08,4.3310934485308933e-07,1.647475059292271e-07,1.5432439138252306e-07,-1.6451165612666463e-07,3.625830152497568e-08,-8.772354253781544e-09,1.9194147736502285e-08,-1.6451165612666463e-07,1.4186593672821263e-08,2.835618736729561e-08,1.551327245510817e-07,-2.0955274570718e-07,2.835618736729561e-08,1.4380492552761433e-08,5.176707184592121e-08,-5.399075170596151e-09,1.4380492552761433e-08,-1.3202621644478744e-07,1.1571445628553552e-07,-3.0232538532918496e-08,2.345733641493826e-07,-9.254346140701866e-09,-4.1492434994095414e-08,8.965653980189704e-08,2.9663971736481415e-07,1.1954584888409428e-08,6.404906936646206e-08,-1.5612485087896438e-07,-4.677197747957055e-08,-5.147825790391888e-08,-3.4004636620639346e-08,-1.5612485087896438e-07
sub-105,2,-8.54943819667812e-08,-1.088247876858098e-07,3.484604008587382e-08,5.348052563041989e-07,-1.088247876858098e-07,-7.445458391180653e-08,-1.2090580042903368e-07,-4.431632003480636e-08,-7.445458391180653e-08,-7.649508515485201e-08,-1.1405592117944923e-08,-7.079358661812977e-08,-1.5512524256504182e-07,-1.0309691261167956e-07,3.079096351840228e-07,6.320943042973538e-07,-1.0402294454841527e-07,-1.0357067410046863e-07,2.488166095072388e-07,5.618832834330184e-08,-2.4468781623663274e-08,2.752437554687963e-08,4.022568111549034e-07,5.618832834330184e-08,-1.3275418333328007e-07,-2.011681872016247e-07,2.7953606184783636e-08,5.646382608734629e-07,-2.011681872016247e-07,-1.4635153979180535e-07,-1.8899237736038046e-07,-1.241439646233227e-07,-1.4635153979180535e-07,-8.269411146328154e-08,-1.931191758729819e-08,-1.2615271719117924e-07,-3.0870534702781346e-07,-1.7029921354560983e-07,2.3870067979415905e-07,6.874697164468818e-07,-2.348065183495895e-07,-1.486286845387681e-07,2.730273061224624e-07,-1.3582632535056183e-08,-7.588384217535802e-08,-9.143919215471445e-09,5.337139136391929e-07,-1.3582632535056183e-08,-8.669160008274285e-08,-1.2935300270378434e-07,-3.2447173100102167e-08,3.382833014085057e-07,-1.2935300270378434e-07,-8.995525354583295e-08,-1.8856595405430062e-07,-9.194165533138965e-08,-8.995525354583295e-08,-6.275119179510089e-08,-4.3950145215284187e-08,-9.847396740263506e-08,-3.109674590685364e-07,-1.1062678162477813e-07,1.4827886376662062e-07,4.452411243272798e-07,-2.4002650507261363e-07,-1.0257943458059853e-07,1.3101312780254685e-07,-2.009502937133139e-08,-4.882745032072643e-08,-4.779353949184808e-09,3.3695836732058045e-07,-2.009502937133139e-08
sub-105,2,8.25707918170662e-08,4.3673906846248134e-09,5.095269751114808e-08,3.491474172269414e-07,4.3673906846248134e-09,-4.819699136089749e-08,-1.3145354758900228e-07,-9.535600842201134e-08,-4.819699136089749e-08,-5.293211567310522e-08,-3.90350701032029e-08,-4.004434598524722e-08,-1.3725532967650118e-08,-1.4101802696011788e-08,3.526208784335081e-07,4.0142723027899415e-07,4.4014431248974505e-09,-5.1635101886438873e-08,8.281405824850859e-10,1.6451319822413695e-08,-2.1966488401660684e-08,-6.286695131645402e-08,9.06057511844816e-08,1.6451319822413695e-08,8.102610137444879e-08,1.1633578877752828e-08,7.551440251960266e-08,3.704386153434143e-07,1.1633578877752828e-08,-4.65269523488914e-08,-1.2693988874109288e-07,-1.228051095588397e-07,-4.65269523488914e-08,-1.0040568527621175e-07,-4.0797985379735244e-08,-4.967729665694289e-08,2.090461124657912e-08,-2.249936258244196e-08,4.811929309784305e-07,4.45653875097969e-07,3.961494048817237e-08,-6.119627073397302e-08,1.860613848871609e-11,1.4615159839222354e-08,-1.7822777293733257e-08,-1.3416901474574383e-07,1.207039399270211e-07,1.4615159839222354e-08,3.833132333497848e-08,-5.396895874578167e-08,4.165250496202461e-08,3.2479726651745114e-07,-5.396895874578167e-08,-9.353890401602062e-08,-1.513638647616745e-07,-1.454814750225224e-07,-9.353890401602062e-08,-1.2944214240540523e-07,-7.551699122302401e-08,-7.321025469211498e-08,-5.648534054339986e-08,-1.0844677474913483e-07,4.801417948790275e-07,5.976033226353433e-07,-2.4376823752267167e-09,-1.0769781046216512e-07,-4.7210194614113206e-08,3.973861592715258e-08,-4.746922341957244e-08,-1.117835554337482e-07,1.7523223409455118e-07,3.973861592715258e-08
sub-105,1,5.5403051498753046e-08,8.7044972125699e-08,2.2362596696602017e-07,2.22229408113353e-07,8.7044972125699e-08,1.0601417933871828e-07,-5.3104727486005436e-08,1.308750959688223e-07,1.0601417933871828e-07,1.0164935023033822e-07,1.4309311971767154e-07,8.021604782222458e-08,-7.219305236835486e-08,1.0923973578346698e-07,2.4575883160364575e-07,3.1515510528625484e-07,-6.974805924625142e-08,1.1339642988025329e-07,1.3467387011455497e-07,3.4445563960240965e-08,3.40074980744897e-08,4.270586264263441e-08,1.4628247499255065e-07,3.4445563960240965e-08,-2.769586576959088e-08,-9.686183449625768e-08,1.8981206399137646e-07,9.550663308240156e-08,-9.686183449625768e-08,-2.6317589777448574e-08,-6.569718667459686e-08,5.0517111202634316e-08,-2.6317589777448574e-08,6.610705925608948e-08,1.258694824386546e-07,3.917833264257159e-08,-1.0692668424119906e-07,-7.812651260012168e-09,2.2875968747531878e-07,1.3643489951272714e-07,-1.0016759158557663e-07,2.4212496012267242e-08,1.0178687912866398e-07,-4.6997746955403236e-08,-5.6053951929104684e-08,-5.054054395320377e-08,5.676069435473458e-11,-4.6997746955403236e-08,1.3967652893448388e-07,1.3795317817088925e-08,1.9296325256155515e-07,-1.711180471263432e-08,1.3795317817088925e-08,9.105096398469663e-08,1.1453378950422356e-07,1.321082930181044e-07,9.105096398469663e-08,1.535666923035114e-07,2.4990556988063084e-07,1.317424185918673e-07,9.946405246411831e-08,1.7619277273949485e-07,1.534841271499678e-07,-1.9901989391990123e-07,4.213771587739909e-08,1.5917464054344687e-07,1.6154088808940186e-07,-7.28326539780475e-08,3.025436826034103e-08,-3.519355742401865e-08,-9.710178809506293e-08,-7.28326539780475e-08
sub-105,3,-5.2494757125576426e-08,-7.097044362718678e-08,1.1534124118578706e-09,1.448968799489409e-07,-7.097044362718678e-08,-7.011735357259684e-08,-6.87109410515811e-10,-7.18382888519536e-08,-7.011735357259684e-08,-5.365040030975423e-10,8.932557957900194e-08,-5.3268094897781366e-08,7.722846411180002e-08,2.2549418096245184e-08,2.910794522138551e-07,8.886940912823001e-07,6.528634127961054e-08,2.604771878334505e-08,4.932180790507255e-07,-5.795533592137872e-08,1.1729989446351368e-09,4.2534789207972146e-09,7.86778947710171e-07,-5.795533592137872e-08,-6.384458242594995e-08,-1.0363558304252954e-07,-1.4763807966985765e-07,-2.1889559112577193e-07,-1.0363558304252954e-07,-9.948046520115708e-08,2.0219109945104677e-08,-7.262737847100998e-08,-9.948046520115708e-08,-4.309742569610986e-08,1.4145661559810726e-08,-7.303543568929737e-08,5.814096513781096e-08,5.935881328745455e-10,-2.736517615616856e-08,7.116397280703726e-07,3.279662980980898e-08,-1.0901624829730684e-11,4.3591283092635116e-07,-2.5568795235267156e-08,7.806215080064872e-10,4.949981511907282e-08,7.500495682936853e-07,-2.5568795235267156e-08,-1.055453916238282e-09,-6.273837860374352e-08,-9.395470400619015e-08,-2.774850078162899e-07,-6.273837860374352e-08,-6.245369093159971e-08,9.974760401129592e-08,-3.724732587492912e-08,-6.245369093159971e-08,-1.0657928541258832e-09,-1.7573125782580324e-09,-3.459475191874519e-08,1.5592149241697268e-08,2.5449165366374147e-08,-2.1967448840735861e-07,6.044591415456148e-07,-7.027168863133419e-09,3.1009258284202966e-08,2.5663929034330464e-07,-9.440785436426817e-09,2.2706336243943285e-08,5.522649140322891e-08,5.067221881032982e-07,-9.440785436426817e-09
sub-105,4,4.972249849100431e-08,5.3578274283293286e-08,3.515899114900385e-08,1.3095338355593756e-07,5.3578274283293286e-08,5.158865923927348e-08,-4.8175592477497675e-08,-1.747597962662175e-09,5.158865923927348e-08,4.0765560188431473e-08,-5.763527319307528e-09,3.159615618605059e-09,-3.110218984213828e-08,3.1816741962291764e-08,1.5401360171663567e-08,1.3592653726365212e-07,-8.65079343248974e-08,1.3632196771888349e-08,-1.759495114669762e-07,3.5417481136791344e-08,2.3760782517738966e-08,-1.4805319610814412e-08,3.289339705137146e-08,3.5417481136791344e-08,-3.709338076423066e-08,-4.551379760315996e-08,-2.699108930113197e-08,1.4466954922625813e-07,-4.551379760315996e-08,-4.028727165003667e-08,-1.1716999088600831e-07,-8.572927460431243e-08,-4.028727165003667e-08,-8.056687115214367e-08,-7.554724923999986e-08,-7.203160355651603e-08,1.8841824337605807e-08,-8.900995060917441e-08,1.9310435663879662e-07,1.6025382239085964e-08,-1.9772841642621596e-08,-7.108349882509157e-08,-1.7600899767708903e-07,-5.86109347414035e-09,-4.77302627922089e-08,-9.436679497583523e-08,7.710080867205631e-08,-5.86109347414035e-09,2.163976710763576e-09,-1.1905711060476706e-08,1.0198560286937364e-08,2.0144887167544612e-07,-1.1905711060476706e-08,-2.8581852512054402e-08,-7.128098519017892e-08,-7.649345401122332e-08,-2.8581852512054402e-08,-9.645561697115874e-08,-4.3840229813481063e-08,-6.846659274995653e-08,4.1409445293113836e-08,-6.891354883582647e-08,2.8970373273936563e-07,1.6039672645638997e-07,-2.8226208849183227e-08,-6.736281662811457e-08,-1.3516732600414022e-07,-1.077783658784481e-08,-4.7382153150393485e-08,-1.1453465384952215e-07,1.2572770500019526e-07,-1.077783658784481e-08
sub-105,4,8.214463883297798e-08,4.332314778085255e-08,1.0705244156759034e-07,9.81725118340758e-08,4.332314778085255e-08,2.7414357981961558e-08,3.472782517238621e-08,5.438289992224751e-08,2.7414357981961558e-08,1.383281379806447e-07,1.2294667687498333e-07,9.597234300029868e-08,1.6591015328017828e-07,1.6865801790422788e-07,9.269983501783867e-08,1.8611081073405267e-07,1.2125345963958654e-07,1.640232939682362e-08,1.1441087908190704e-08,1.408700638742472e-07,6.073833671418844e-08,1.9460924519497074e-07,1.1360011025260048e-07,1.408700638742472e-07,8.78455817089326e-08,7.776198556982244e-08,1.4006163556649148e-07,1.217410152388136e-07,7.776198556982244e-08,6.565505019806894e-08,9.857989045193365e-08,9.215780714235626e-08,6.565505019806894e-08,1.6257436763604045e-07,1.7709645343762393e-07,1.1635982889240701e-07,1.737337836266829e-08,1.3886852818177142e-07,2.2088480834047196e-07,4.0748189332246484e-07,7.459558179164136e-08,2.0453641318717137e-08,1.0550706809893599e-07,1.9564892454820012e-07,6.281154591623305e-08,2.6241955122871293e-07,3.32844416314918e-07,1.9564892454820012e-07,5.455221010274238e-08,5.3512435992674525e-08,1.1543908823731369e-07,1.047381624395205e-07,5.3512435992674525e-08,4.879434870478536e-08,6.517555697161562e-08,8.217976304844144e-08,4.879434870478536e-08,1.2707924623978046e-07,1.2516761607156482e-07,9.139375366044772e-08,-7.630660598788606e-09,9.471690420529497e-08,1.893630597809953e-07,1.7061999834135943e-07,1.0615222798780949e-07,2.4458963386840495e-08,7.351020050850629e-08,1.5347345228644466e-07,4.5827223565402015e-08,2.111692849795535e-07,1.9314829239193282e-07,1.5347345228644466e-07
sub-105,1,-1.0731855134843327e-07,-9.10710179661535e-08,-1.2988840562229355e-07,7.19486283604006e-08,-9.10710179661535e-08,-9.550564294791018e-08,-1.253759198623628e-07,1.9996375013292263e-08,-9.550564294791018e-08,7.140967809951057e-08,-4.552107009650398e-08,2.559804940995907e-08,-1.4722829756753372e-08,-8.57182310519085e-08,1.0064295558167537e-07,3.089869257831918e-07,-1.2072699278631015e-07,-7.502550904405157e-09,-1.2915490429593622e-08,5.418503214844422e-08,1.805902482441338e-08,4.215534522556765e-08,-7.140052066318743e-08,5.418503214844422e-08,-2.3466092197440446e-07,-2.6798197683863786e-07,-1.7810688070195577e-07,5.78638707532682e-08,-2.6798197683863786e-07,-2.215929939940785e-07,-2.1782823071079804e-07,-5.2627595509172574e-08,-2.215929939940785e-07,1.5355707487918507e-09,-1.4260448505747776e-07,-3.795671576387822e-08,-9.946547064686844e-08,-1.6159313655868215e-07,1.3141343778004612e-07,4.5945476684841285e-07,-2.3369688856079658e-07,-5.537840411939493e-08,-6.7229432559050324e-09,2.1888838914683103e-08,-4.1463081232824106e-08,-2.2989278550094067e-08,-1.400353892793256e-07,2.1888838914683103e-08,-2.2174607419994457e-07,-2.1135428356132423e-07,-1.6006900883719636e-07,8.982790268381892e-09,-2.1135428356132423e-07,-1.7893009510241126e-07,-2.036473173762163e-07,-7.041042565349653e-08,-1.7893009510241126e-07,1.4044916356690308e-08,-1.3169497561602698e-07,-3.682900562149101e-08,-1.451535059413996e-07,-1.3619253704666346e-07,3.41711715317049e-08,4.3357686934013293e-07,-2.7999932900773385e-07,-4.8335984714550415e-08,-6.733514191117292e-09,-1.2122258288541744e-08,-4.6194097205587434e-08,-3.580978277702603e-08,-1.4428753472263703e-07,-1.2122258288541744e-08
sub-105,2,5.154523734860087e-09,-5.500872221956462e-08,1.0474600012197669e-07,-5.611386369068083e-08,-5.500872221956462e-08,-1.2336924944404048e-07,-8.041371837333126e-09,-4.785320781798638e-08,-1.2336924944404048e-07,-2.323082978840777e-07,-5.2054307695960074e-08,-8.741890720588788e-08,1.543085981458199e-07,-1.9466070979519946e-07,1.2946273702892374e-07,-3.722085995774461e-07,1.447387810777647e-07,-5.298828467783665e-08,6.267607107073897e-08,-1.2220971475308228e-07,-8.323936386670477e-08,-1.4164276176441126e-07,-1.569986765938797e-07,-1.2220971475308228e-07,1.2357663515900196e-08,-5.830659134385477e-08,1.1820914981912198e-07,5.682911867654869e-08,-5.830659134385477e-08,-1.5852551207612058e-07,-5.168640937669144e-08,-6.232814112752318e-08,-1.5852551207612058e-07,-3.516614605951287e-07,-4.35962654263415e-08,-1.4495123160758563e-07,1.275144011889002e-07,-2.3641748395649064e-07,2.724023189873626e-07,-1.994447689230818e-07,1.7810820404641764e-07,-1.2496797214197483e-07,1.529110312624401e-07,-1.3215475916990283e-07,-9.328017578976223e-08,-1.3819960597749222e-07,-9.873818835741093e-08,-1.3215475916990283e-07,-6.224734676689202e-08,-1.61886883732174e-07,-5.34723764917413e-08,2.9271048139972228e-08,-1.61886883732174e-07,-1.8751688197502822e-07,-1.2081774087312694e-07,-1.0973537247235012e-07,-1.8751688197502822e-07,-3.714479641353405e-07,-1.0333190468731665e-07,-1.4663629555214113e-07,6.641016676999417e-08,-2.73341094971229e-07,2.4391137520673446e-07,-9.470320654376309e-08,1.2995701787718469e-07,-1.4914278185538885e-07,1.1751685490616375e-07,-1.2376049047691258e-07,-1.04091188289214e-07,-1.0152821392477305e-07,-1.4209076708667376e-07,-1.2376049047691258e-07
sub-105,3,-1.322507871915677e-07,1.3966588498175962e-08,-3.3867857868811733e-07,-4.473495449139142e-07,1.3966588498175962e-08,-2.8453946094249075e-08,-1.0626426510248512e-07,-4.245755003875488e-08,-2.8453946094249075e-08,2.9392092385876472e-08,-8.384299263549898e-08,-7.152844620959783e-08,-2.0959601730110079e-07,1.755102362322755e-08,-7.103459363601167e-07,-2.3875099074947607e-07,-1.763559819320904e-07,-6.102333790562475e-08,-2.5666474740511827e-07,5.8558627074981526e-08,-2.2322570987650782e-08,8.596160612575832e-09,-2.1900678337383696e-07,5.8558627074981526e-08,-1.232990592654287e-07,7.773345810761266e-08,-4.373277458381234e-07,-7.389361166988737e-07,7.773345810761266e-08,1.200633103930185e-08,-9.367410725965251e-08,-3.2293258015916324e-09,1.200633103930185e-08,1.1055378297941427e-07,-1.1998662921514423e-07,-3.987215703644482e-08,-2.640691845589005e-07,4.302850648260473e-08,-9.863772224769337e-07,-4.626728395338368e-07,-2.416799134545162e-07,-5.4599031954294216e-08,-3.2582033976216014e-07,5.735616276591085e-08,-2.2777932455192173e-08,-1.1055697794574945e-08,-2.8393690180275723e-07,5.735616276591085e-08,-5.857043667545817e-08,1.165267425482458e-07,-3.5657929974630557e-07,-7.593566903129214e-07,1.165267425482458e-07,5.48530693039701e-08,-4.566396373453475e-09,4.358480944433687e-08,5.48530693039701e-08,1.3328797777739108e-07,-7.816391767446059e-08,6.133886074304215e-09,-1.5064367245369116e-07,7.962631495480767e-08,-9.961283121194152e-07,-6.823222206246811e-07,-1.3784770489074923e-07,2.213003549326596e-08,-2.7650852583709077e-07,3.99194672979588e-08,9.941838086647464e-09,-1.1101489183653277e-08,-2.9014911104401384e-07,3.99194672979588e-08
sub-105,2,2.754639320253395e-07,3.9765931330707117e-07,2.7514716471331086e-07,3.382946609359964e-07,3.9765931330707117e-07,2.4706999777035687e-07,9.050765469579808e-08,1.3312885574144243e-07,2.4706999777035687e-07,9.14737977504919e-08,1.6402157013470284e-07,1.1109588865218728e-07,1.0034895000632833e-07,1.8537357740951103e-07,2.606529365733719e-07,2.0848004263233102e-07,5.999381038885611e-08,1.760045050866714e-07,7.912792198239352e-08,1.24744750587375e-07,1.4232975753184727e-07,1.4540216752254804e-07,3.124998719283954e-07,1.24744750587375e-07,4.069077678056507e-07,5.141058118706179e-07,4.513799554726699e-07,6.044592618244092e-07,5.141058118706179e-07,3.166293675694876e-07,1.601080079595638e-07,2.0899691750710242e-07,3.166293675694876e-07,1.4745952551181285e-07,2.2978815573372172e-07,1.5816929352558092e-07,2.4180756262699244e-07,2.455552045544472e-07,5.601259859249415e-07,3.1449583064806055e-07,2.2230558559379393e-07,2.844875093050793e-07,1.556387773148944e-07,2.029024445192793e-07,2.1662397266642752e-07,2.0451722634058893e-07,3.4808973056295246e-07,2.029024445192793e-07,3.675536999787873e-07,4.5110437695151806e-07,4.017736502085931e-07,5.055098982348835e-07,4.5110437695151806e-07,2.8310831308816016e-07,1.9699509097455787e-07,1.7687517464605913e-07,2.8310831308816016e-07,9.455842130543167e-08,2.2802838134167526e-07,1.2816133374217574e-07,2.3384911667300433e-07,2.292522386866398e-07,5.552280817524314e-07,3.1222185379266277e-07,2.196818821488426e-07,2.556253842590786e-07,1.2966617779062299e-07,1.6501622811783852e-07,2.0497441833690577e-07,1.6006081545143175e-07,2.6925922619310447e-07,1.6501622811783852e-07
sub-105,3,-2.2276559839643902e-07,-1.9498282071413147e-07,-2.0098697542296814e-07,2.2403459606803362e-08,-1.9498282071413147e-07,-1.4090979848903724e-07,-2.0862475990275319e-07,-1.3353050587788605e-07,-1.4090979848903724e-07,-1.4793177912411714e-07,-1.3753751118040084e-07,-1.278836391417658e-07,-2.228749295927341e-07,-1.8058776213118572e-07,-2.011697601779482e-07,-9.225936855124989e-08,-1.5376026514690844e-07,-1.9882717553482286e-07,-1.7679477605609515e-07,-1.355613774759971e-07,-1.3380871259915926e-07,-1.0214021344282313e-07,-2.311379461107764e-07,-1.355613774759971e-07,-1.7058960591708047e-07,-1.667539556755855e-07,-2.2298815246565383e-07,-2.0640285481718533e-07,-1.667539556755855e-07,-1.174234321222401e-07,-2.0477704350564874e-07,-1.3304183536874536e-07,-1.174234321222401e-07,-1.6101843145568715e-07,-1.22274801752151e-07,-1.018856490806508e-07,-7.712217823979522e-08,-1.1861928963570665e-07,-2.7271426822081443e-07,-1.0630975801346016e-07,-6.508352181819612e-08,-1.4848804137194695e-07,-1.891381140836063e-07,-1.0871953758987896e-07,-1.201163942882025e-07,-9.91729323901238e-08,-2.700202682300243e-07,-1.0871953758987896e-07,-5.172661750242692e-08,-2.8081024844848187e-08,-1.441210097159122e-07,-1.252739818564561e-07,-2.8081024844848187e-08,6.330270561734746e-10,-9.074413240539985e-08,-3.9605858374085945e-08,6.330270561734746e-10,-9.441211708137034e-08,-5.787998488364352e-08,-3.279107670717735e-08,1.1894943551505637e-08,-1.7651878058719962e-08,-4.426862805378542e-08,-8.568508597279555e-09,3.0296872064158143e-09,-8.084966125343811e-08,-7.659819388172057e-08,-5.498182059456132e-08,-6.41648182878403e-08,-4.343568387090569e-08,-7.258032882954486e-08,-5.498182059456132e-08
sub-105,4,8.58630087772961e-08,1.8108695491217254e-07,8.264180293044628e-08,2.7831236938479033e-08,1.8108695491217254e-07,1.562923927930252e-07,5.3547465884761994e-08,5.991693352412234e-08,1.562923927930252e-07,5.93497084275232e-08,3.49123282629564e-08,4.328055736915183e-08,2.2157718330932963e-07,1.4663218305586763e-07,-1.8442402431189783e-07,-5.23286602369668e-07,5.868367875154371e-08,6.375519312428629e-08,-1.320853166456385e-07,-9.25784209751532e-09,6.383035398632219e-08,8.530430425692955e-09,-1.939105473464823e-07,-9.25784209751532e-09,9.699469549062968e-08,2.0334215807806458e-07,1.3716087776943848e-07,1.4552046756002165e-07,2.0334215807806458e-07,1.733539813732487e-07,4.9560735412800555e-08,5.271919139199601e-08,1.733539813732487e-07,8.702933764780827e-08,4.679768938359611e-08,5.0374727875645987e-08,1.8308187628535973e-07,1.6127298199632079e-07,1.2086897604039298e-08,-4.1536671918175623e-07,1.806248223565411e-08,7.323517014708579e-08,-6.598218266546867e-08,2.3613378907132465e-08,8.265067245200498e-08,5.151325192708746e-08,-1.5564990920578494e-07,2.3613378907132465e-08,1.4319090308400957e-07,2.9025481015083923e-07,1.8262660689833896e-07,2.5863310397200997e-07,2.9025481015083923e-07,2.2089869168580127e-07,8.207158702602381e-08,8.653562532831028e-08,2.2089869168580127e-07,1.5118287404654862e-07,9.629636422591904e-08,8.716437107966252e-08,1.5141787962805224e-07,2.163385844778708e-07,1.0491683933520381e-07,-3.556147652317788e-07,-8.643247602564258e-09,1.0992907974986703e-07,-5.413476672114768e-09,5.171086034969548e-08,1.2201792744038474e-07,9.292423520866932e-08,-3.571426710657373e-08,5.171086034969548e-08
